title="THE FLOW FIELD OF ONEFLOW"
variables=
"ETA"
"u/U"
"v/U * sqrt( 2 * Rex )"
zone  i = 169 
0.0000000000e+00    0.0000000000e+00    0.0000000000e+00    
1.7651910113e-01    8.3066645695e-02    2.0348788754e-02    
3.5304436755e-01    1.6613329139e-01    4.0698288231e-02    
5.2959380999e-01    2.4834586311e-01    8.4551400315e-02    
7.0616142624e-01    3.3055843482e-01    1.2840902675e-01    
8.8277381048e-01    4.0944494551e-01    1.9710206456e-01    
1.0594150110e+00    4.8833145620e-01    2.6580631163e-01    
1.2361117460e+00    5.6021204996e-01    3.5341064808e-01    
1.4128449397e+00    6.3209264373e-01    4.4103306384e-01    
1.5896284452e+00    6.9306725039e-01    5.3669790958e-01    
1.7664514977e+00    7.5404185706e-01    6.3238416096e-01    
1.9433033571e+00    8.0140927298e-01    7.2321188639e-01    
2.1201928178e+00    8.4877668889e-01    8.1405892704e-01    
2.2970816116e+00    8.8211216657e-01    8.8946791713e-01    
2.4740021215e+00    9.1544764425e-01    9.6489042892e-01    
2.6508964233e+00    9.3657295000e-01    1.0199792123e+00    
2.8278147167e+00    9.5769825575e-01    1.0750754661e+00    
3.0046928763e+00    9.6970105507e-01    1.1106544689e+00    
3.1815874809e+00    9.8170385439e-01    1.1462367781e+00    
3.3584401426e+00    9.8777886083e-01    1.1666088136e+00    
3.5353031014e+00    9.9385386727e-01    1.1869820344e+00    
3.7121303704e+00    9.9655527129e-01    1.1972848475e+00    
3.8889635558e+00    9.9925667531e-01    1.2075880049e+00    
4.0657704940e+00    1.0002778482e+00    1.2121267508e+00    
4.2425805513e+00    1.0012990210e+00    1.2166655767e+00    
4.4193735013e+00    1.0015976992e+00    1.2183314102e+00    
4.5961679521e+00    1.0018963774e+00    1.2199972578e+00    
4.7729524264e+00    1.0019378729e+00    1.2204337185e+00    
4.9497375513e+00    1.0019793685e+00    1.2208701808e+00    
5.1265174806e+00    1.0019550459e+00    1.2208713579e+00    
5.3032976574e+00    1.0019307233e+00    1.2208725351e+00    
5.4800754504e+00    1.0019033664e+00    1.2207638305e+00    
5.6568533211e+00    1.0018760094e+00    1.2206551259e+00    
5.8336302636e+00    1.0018584567e+00    1.2205409284e+00    
6.0104072230e+00    1.0018409039e+00    1.2204267309e+00    
6.1871839069e+00    1.0018313233e+00    1.2203276675e+00    
6.3639605909e+00    1.0018217426e+00    1.2202286042e+00    
6.5407372422e+00    1.0018163759e+00    1.2201405185e+00    
6.7175138918e+00    1.0018110091e+00    1.2200524328e+00    
6.8942905726e+00    1.0018073609e+00    1.2199686958e+00    
7.0710672533e+00    1.0018037127e+00    1.2198849589e+00    
7.2478439671e+00    1.0018005988e+00    1.2198011043e+00    
7.4246206825e+00    1.0017974849e+00    1.2197172498e+00    
7.6013974191e+00    1.0017944732e+00    1.2196313137e+00    
7.7781741583e+00    1.0017914615e+00    1.2195453777e+00    
7.9549509091e+00    1.0017884429e+00    1.2194565778e+00    
8.1317276628e+00    1.0017854243e+00    1.2193677779e+00    
8.3085044229e+00    1.0017823934e+00    1.2192759814e+00    
8.4852811861e+00    1.0017793625e+00    1.2191841848e+00    
8.6620579535e+00    1.0017763331e+00    1.2190893600e+00    
8.8388347240e+00    1.0017733037e+00    1.2189945352e+00    
9.0156114980e+00    1.0017702852e+00    1.2188967340e+00    
9.1923882752e+00    1.0017672667e+00    1.2187989328e+00    
9.3691650560e+00    1.0017642622e+00    1.2186981593e+00    
9.5459418398e+00    1.0017612577e+00    1.2185973857e+00    
9.7227186273e+00    1.0017582663e+00    1.2184936612e+00    
9.8994954179e+00    1.0017552749e+00    1.2183899366e+00    
1.0076272212e+01    1.0017522939e+00    1.2182832558e+00    
1.0253049010e+01    1.0017493129e+00    1.2181765749e+00    
1.0429825811e+01    1.0017463388e+00    1.2180669445e+00    
1.0606602615e+01    1.0017433646e+00    1.2179573141e+00    
1.0783379423e+01    1.0017403934e+00    1.2178447302e+00    
1.0960156234e+01    1.0017374221e+00    1.2177321463e+00    
1.1136933049e+01    1.0017344491e+00    1.2176166119e+00    
1.1313709868e+01    1.0017314761e+00    1.2175010776e+00    
1.1490486689e+01    1.0017284959e+00    1.2173825914e+00    
1.1667263514e+01    1.0017255158e+00    1.2172641053e+00    
1.1844040343e+01    1.0017225224e+00    1.2171426686e+00    
1.2020817175e+01    1.0017195289e+00    1.2170212319e+00    
1.2197594011e+01    1.0017165146e+00    1.2168968450e+00    
1.2374370850e+01    1.0017135003e+00    1.2167724580e+00    
1.2551147692e+01    1.0017104562e+00    1.2166451204e+00    
1.2727924538e+01    1.0017074121e+00    1.2165177827e+00    
1.2904701388e+01    1.0017043271e+00    1.2163874958e+00    
1.3081478240e+01    1.0017012421e+00    1.2162572089e+00    
1.3258255096e+01    1.0016981022e+00    1.2161239735e+00    
1.3435031956e+01    1.0016949622e+00    1.2159907381e+00    
1.3611808819e+01    1.0016917482e+00    1.2158545575e+00    
1.3788585685e+01    1.0016885342e+00    1.2157183769e+00    
1.3965362555e+01    1.0016852185e+00    1.2155792651e+00    
1.4142139428e+01    1.0016819028e+00    1.2154401533e+00    
1.4318916306e+01    1.0016784131e+00    1.2152969323e+00    
1.4495693187e+01    1.0016749234e+00    1.2151537113e+00    
1.4678289901e+01    1.0016711212e+00    1.2150027161e+00    
1.4860886619e+01    1.0016673190e+00    1.2148517210e+00    
1.5055314600e+01    1.0016630360e+00    1.2146876506e+00    
1.5249742585e+01    1.0016587531e+00    1.2145235802e+00    
1.5462402773e+01    1.0016538152e+00    1.2143403411e+00    
1.5675062965e+01    1.0016488774e+00    1.2141571020e+00    
1.5912956537e+01    1.0016431082e+00    1.2139475291e+00    
1.6150850115e+01    1.0016373391e+00    1.2137379563e+00    
1.6421808983e+01    1.0016305742e+00    1.2134934307e+00    
1.6692767858e+01    1.0016238093e+00    1.2132489051e+00    
1.7005712507e+01    1.0016159217e+00    1.2129588705e+00    
1.7318657166e+01    1.0016080341e+00    1.2126688359e+00    
1.7683890336e+01    1.0015989638e+00    1.2123201610e+00    
1.8049123519e+01    1.0015898934e+00    1.2119714861e+00    
1.8478669390e+01    1.0015796581e+00    1.2115475665e+00    
1.8908215280e+01    1.0015694227e+00    1.2111236468e+00    
1.9416215334e+01    1.0015580874e+00    1.2106031106e+00    
1.9924215414e+01    1.0015467521e+00    1.2100825743e+00    
2.0527394002e+01    1.0015343531e+00    1.2094374397e+00    
2.1130572628e+01    1.0015219541e+00    1.2087923050e+00    
2.1848787569e+01    1.0015084065e+00    1.2079854773e+00    
2.2567002563e+01    1.0014948590e+00    1.2071786495e+00    
2.3423898906e+01    1.0014798981e+00    1.2061606408e+00    
2.4280795324e+01    1.0014649372e+00    1.2051426319e+00    
2.5304583793e+01    1.0014481314e+00    1.2038473345e+00    
2.6328372370e+01    1.0014313256e+00    1.2025520369e+00    
2.7552758124e+01    1.0014121471e+00    1.2008912599e+00    
2.8777144030e+01    1.0013929685e+00    1.1992304827e+00    
3.0242436310e+01    1.0013708625e+00    1.1970868612e+00    
3.1707728804e+01    1.0013487565e+00    1.1949432394e+00    
3.3462168000e+01    1.0013231716e+00    1.1921612284e+00    
3.5216607500e+01    1.0012975866e+00    1.1893792168e+00    
3.7317953337e+01    1.0012679912e+00    1.1857543784e+00    
3.9419299598e+01    1.0012383957e+00    1.1821295393e+00    
4.1936732709e+01    1.0012043191e+00    1.1773970460e+00    
4.4454166409e+01    1.0011702426e+00    1.1726645517e+00    
4.7470565903e+01    1.0011313501e+00    1.1664890679e+00    
5.0486966207e+01    1.0010924577e+00    1.1603135825e+00    
5.4101638213e+01    1.0010486576e+00    1.1522846170e+00    
5.7716311317e+01    1.0010048574e+00    1.1442556490e+00    
6.2048258308e+01    1.0009564476e+00    1.1338953245e+00    
6.6380206756e+01    1.0009080377e+00    1.1235349965e+00    
7.1572045271e+01    1.0008558693e+00    1.1103272435e+00    
7.6763885670e+01    1.0008037009e+00    1.0971194858e+00    
8.2986541403e+01    1.0007493278e+00    1.0805696970e+00    
8.9209199490e+01    1.0006949547e+00    1.0640199019e+00    
9.6667534302e+01    1.0006406760e+00    1.0437471075e+00    
1.0412587193e+02    1.0005863972e+00    1.0234743055e+00    
1.1306542806e+02    1.0005351397e+00    9.9932378492e-01    
1.2200498736e+02    1.0004838822e+00    9.7517325575e-01    
1.3272007092e+02    1.0004388144e+00    9.4731557202e-01    
1.4343515781e+02    1.0003937466e+00    9.1945787965e-01    
1.5627852779e+02    1.0003577459e+00    8.8842942402e-01    
1.6912190092e+02    1.0003217451e+00    8.5740096080e-01    
1.8451638275e+02    1.0002967339e+00    8.2404874761e-01    
1.9991086711e+02    1.0002717226e+00    7.9069652894e-01    
2.1836327308e+02    1.0002583137e+00    7.5603627135e-01    
2.3681568051e+02    1.0002449049e+00    7.2137601104e-01    
2.5893349540e+02    1.0002421587e+00    6.8640835340e-01    
2.8105131023e+02    1.0002394125e+00    6.5144069583e-01    
3.0756269119e+02    1.0002452631e+00    6.1700496041e-01    
3.3407407027e+02    1.0002511137e+00    5.8256922743e-01    
3.6585181945e+02    1.0002624458e+00    5.4926018242e-01    
3.9762956475e+02    1.0002737779e+00    5.1595114149e-01    
4.3571986398e+02    1.0002873750e+00    4.8413627350e-01    
4.7381015732e+02    1.0003009720e+00    4.5232141043e-01    
5.1946701035e+02    1.0003130831e+00    4.2217207556e-01    
5.6512385563e+02    1.0003251941e+00    3.9202274582e-01    
6.1985037306e+02    1.0003330455e+00    3.6364262759e-01    
6.7457688130e+02    1.0003408970e+00    3.3526251413e-01    
7.4017476482e+02    1.0003411705e+00    3.0867247922e-01    
8.0577263818e+02    1.0003414439e+00    2.8208244842e-01    
8.8440149885e+02    1.0003331590e+00    2.5746332454e-01    
9.6303034938e+02    1.0003248741e+00    2.3284420384e-01    
1.0572787992e+03    1.0003063340e+00    2.1020292175e-01    
1.1515272390e+03    1.0002877940e+00    1.8756164206e-01    
1.2644981286e+03    1.0002603331e+00    1.6745841379e-01    
1.3774690109e+03    1.0002328722e+00    1.4735518684e-01    
1.5128815391e+03    1.0001988947e+00    1.2933678246e-01    
1.6482940590e+03    1.0001649172e+00    1.1131837919e-01    
1.8106063176e+03    1.0001188201e+00    9.6855737298e-02    
1.9729185771e+03    1.0000727230e+00    8.2393095336e-02    
2.1674740225e+03    1.0000365903e+00    6.8295304153e-02    
2.3620294456e+03    1.0000004576e+00    5.4197514589e-02    
2.5952335429e+03    9.9999112569e-01    4.4767905148e-02    
2.8284376585e+03    9.9998179381e-01    3.5338294972e-02    
zone  i = 169 
0.0000000000e+00    0.0000000000e+00    0.0000000000e+00    
1.2481487128e-01    5.8894644472e-02    1.0306778659e-02    
2.4963194156e-01    1.1778928894e-01    2.0613738902e-02    
3.7445774220e-01    1.7645795997e-01    4.2891550431e-02    
4.9929009633e-01    2.3512663099e-01    6.5170531591e-02    
6.2413943090e-01    2.9293175174e-01    1.0099664591e-01    
7.4899949068e-01    3.5073687248e-01    1.3682583807e-01    
8.7388338463e-01    4.0665879429e-01    1.8525000417e-01    
9.9878175119e-01    4.6258071609e-01    2.3367978272e-01    
1.1237081164e+00    5.1531995028e-01    2.9239705621e-01    
1.2486519631e+00    5.6805918446e-01    3.5112254772e-01    
1.3736240528e+00    6.1621318919e-01    4.1668828403e-01    
1.4986155844e+00    6.6436719392e-01    4.8226422270e-01    
1.6236310893e+00    7.0666405492e-01    5.5037872002e-01    
1.7486667368e+00    7.4896091592e-01    6.1850419477e-01    
1.8737180685e+00    7.8449933434e-01    6.8461693590e-01    
1.9987889512e+00    8.2003775275e-01    7.5074001570e-01    
2.1238648343e+00    8.4846366326e-01    8.1075473811e-01    
2.2489585581e+00    8.7688957376e-01    8.7077802227e-01    
2.3740464569e+00    8.9845077604e-01    9.2174956501e-01    
2.4991497054e+00    9.2001197832e-01    9.7272736277e-01    
2.6242382660e+00    9.3547422487e-01    1.0132243122e+00    
2.7493393150e+00    9.5093647143e-01    1.0537253043e+00    
2.8744200620e+00    9.6139623963e-01    1.0838272255e+00    
2.9995104453e+00    9.7185600783e-01    1.1139314651e+00    
3.1245784145e+00    9.7851831463e-01    1.1348644120e+00    
3.2496534551e+00    9.8518062144e-01    1.1557985419e+00    
3.3747068928e+00    9.8916926325e-01    1.1694153533e+00    
3.4997652771e+00    9.9315790506e-01    1.1830327029e+00    
3.6248048022e+00    9.9539773225e-01    1.1913115383e+00    
3.7498476319e+00    9.9763755944e-01    1.1995905923e+00    
3.8748752601e+00    9.9881370834e-01    1.2042843839e+00    
3.9999049985e+00    9.9998985724e-01    1.2089782545e+00    
4.1249232974e+00    1.0005644900e+00    1.2114466484e+00    
4.2499428854e+00    1.0011391227e+00    1.2139150676e+00    
4.3749543829e+00    1.0013980411e+00    1.2151039148e+00    
4.4999666334e+00    1.0016569596e+00    1.2162927692e+00    
4.6249734852e+00    1.0017627396e+00    1.2168002811e+00    
4.7499807575e+00    1.0018685196e+00    1.2173077947e+00    
4.8749846232e+00    1.0019062440e+00    1.2174801778e+00    
4.9999887131e+00    1.0019439685e+00    1.2176525613e+00    
5.1249907684e+00    1.0019544520e+00    1.2176736056e+00    
5.2499929377e+00    1.0019649355e+00    1.2176946499e+00    
5.3749939571e+00    1.0019659519e+00    1.2176537021e+00    
5.4999950317e+00    1.0019669683e+00    1.2176127543e+00    
5.6249954921e+00    1.0019653973e+00    1.2175492089e+00    
5.7499959779e+00    1.0019638263e+00    1.2174856635e+00    
5.8749961545e+00    1.0019619209e+00    1.2174150387e+00    
5.9999963424e+00    1.0019600156e+00    1.2173444138e+00    
6.1249963844e+00    1.0019583110e+00    1.2172718930e+00    
6.2499964313e+00    1.0019566064e+00    1.2171993723e+00    
6.3749964143e+00    1.0019551178e+00    1.2171262739e+00    
6.4999963994e+00    1.0019536291e+00    1.2170531755e+00    
6.6249963592e+00    1.0019522739e+00    1.2169795834e+00    
6.7499963200e+00    1.0019509187e+00    1.2169059914e+00    
6.8749962722e+00    1.0019496309e+00    1.2168317539e+00    
6.9999962252e+00    1.0019483431e+00    1.2167575164e+00    
7.1249961761e+00    1.0019470863e+00    1.2166824917e+00    
7.2499961276e+00    1.0019458295e+00    1.2166074670e+00    
7.3749960795e+00    1.0019445864e+00    1.2165315806e+00    
7.4999960320e+00    1.0019433432e+00    1.2164556943e+00    
7.6249959854e+00    1.0019421054e+00    1.2163789067e+00    
7.7499959396e+00    1.0019408675e+00    1.2163021191e+00    
7.8749958948e+00    1.0019396295e+00    1.2162244152e+00    
7.9999958507e+00    1.0019383915e+00    1.2161467113e+00    
8.1249958077e+00    1.0019371483e+00    1.2160680812e+00    
8.2499957654e+00    1.0019359050e+00    1.2159894510e+00    
8.3749957241e+00    1.0019346507e+00    1.2159098890e+00    
8.4999956835e+00    1.0019333964e+00    1.2158303270e+00    
8.6249956440e+00    1.0019321235e+00    1.2157498287e+00    
8.7499956052e+00    1.0019308507e+00    1.2156693305e+00    
8.8749955674e+00    1.0019295499e+00    1.2155878909e+00    
8.9999955303e+00    1.0019282491e+00    1.2155064513e+00    
9.1249954943e+00    1.0019269079e+00    1.2154240721e+00    
9.2499954589e+00    1.0019255666e+00    1.2153416930e+00    
9.3749954246e+00    1.0019241676e+00    1.2152583723e+00    
9.4999953910e+00    1.0019227686e+00    1.2151750516e+00    
9.6249953585e+00    1.0019212870e+00    1.2150908033e+00    
9.7499953266e+00    1.0019198055e+00    1.2150065550e+00    
9.8749952958e+00    1.0019182050e+00    1.2149213941e+00    
9.9999952657e+00    1.0019166046e+00    1.2148362333e+00    
1.0124995237e+01    1.0019148154e+00    1.2147494882e+00    
1.0249995209e+01    1.0019130262e+00    1.2146627431e+00    
1.0379110418e+01    1.0019109423e+00    1.2145723244e+00    
1.0508225627e+01    1.0019088585e+00    1.2144819057e+00    
1.0645706791e+01    1.0019063648e+00    1.2143848727e+00    
1.0783187956e+01    1.0019038712e+00    1.2142878397e+00    
1.0933561216e+01    1.0019008522e+00    1.2141809793e+00    
1.1083934477e+01    1.0018978333e+00    1.2140741190e+00    
1.1252150406e+01    1.0018941749e+00    1.2139538152e+00    
1.1420366337e+01    1.0018905165e+00    1.2138335113e+00    
1.1611962923e+01    1.0018861161e+00    1.2136956070e+00    
1.1803559511e+01    1.0018817157e+00    1.2135577027e+00    
1.2024844478e+01    1.0018765034e+00    1.2133973177e+00    
1.2246129448e+01    1.0018712910e+00    1.2132369327e+00    
1.2504387920e+01    1.0018652633e+00    1.2130482653e+00    
1.2762646394e+01    1.0018592357e+00    1.2128595978e+00    
1.3066380731e+01    1.0018524933e+00    1.2126356706e+00    
1.3370115073e+01    1.0018457509e+00    1.2124117435e+00    
1.3729324790e+01    1.0018385069e+00    1.2121440379e+00    
1.4088534514e+01    1.0018312630e+00    1.2118763324e+00    
1.4515045483e+01    1.0018237863e+00    1.2115541706e+00    
1.4941556462e+01    1.0018163096e+00    1.2112320087e+00    
1.5449410243e+01    1.0018088032e+00    1.2108415880e+00    
1.5957264038e+01    1.0018012968e+00    1.2104511672e+00    
1.6563180155e+01    1.0017937819e+00    1.2099742771e+00    
1.7169096291e+01    1.0017862670e+00    1.2094973869e+00    
1.7893022672e+01    1.0017785535e+00    1.2089098940e+00    
1.8616949080e+01    1.0017708400e+00    1.2083224011e+00    
1.9482718780e+01    1.0017625993e+00    1.2075924599e+00    
2.0348488521e+01    1.0017543585e+00    1.2068625186e+00    
2.1384604362e+01    1.0017452260e+00    1.2059482192e+00    
2.2420720260e+01    1.0017360936e+00    1.2050339198e+00    
2.3661293197e+01    1.0017257168e+00    1.2038799006e+00    
2.4901866215e+01    1.0017153401e+00    1.2027258814e+00    
2.6387738341e+01    1.0017033663e+00    1.2012585575e+00    
2.7873610583e+01    1.0016913925e+00    1.1997912334e+00    
2.9653699740e+01    1.0016774479e+00    1.1979124107e+00    
3.1433789062e+01    1.0016635034e+00    1.1960335879e+00    
3.3566699317e+01    1.0016471902e+00    1.1936122166e+00    
3.5699609809e+01    1.0016308770e+00    1.1911908450e+00    
3.8255560834e+01    1.0016117761e+00    1.1880525045e+00    
4.0811512193e+01    1.0015926751e+00    1.1849141636e+00    
4.3874651043e+01    1.0015703604e+00    1.1808284405e+00    
4.6937790363e+01    1.0015480457e+00    1.1767427167e+00    
5.0608961783e+01    1.0015221120e+00    1.1714092234e+00    
5.4280133858e+01    1.0014961783e+00    1.1660757292e+00    
5.8680200298e+01    1.0014663001e+00    1.1591113359e+00    
6.3080267644e+01    1.0014364219e+00    1.1521469412e+00    
6.8354088296e+01    1.0014024267e+00    1.1430785919e+00    
7.3627910183e+01    1.0013684315e+00    1.1340102404e+00    
7.9949110005e+01    1.0013304233e+00    1.1222818723e+00    
8.6270311477e+01    1.0012924152e+00    1.1105535011e+00    
9.3846997201e+01    1.0012508796e+00    1.0955570729e+00    
1.0142368508e+02    1.0012093439e+00    1.0805606404e+00    
1.1050529637e+02    1.0011652896e+00    1.0617038510e+00    
1.1958691037e+02    1.0011212354e+00    1.0428470559e+00    
1.3047243166e+02    1.0010761684e+00    1.0196593276e+00    
1.4135795625e+02    1.0010311014e+00    9.9647159238e-01    
1.5440575966e+02    1.0009869884e+00    9.6873845949e-01    
1.6745356688e+02    1.0009428754e+00    9.4100531849e-01    
1.8309321030e+02    1.0009016806e+00    9.0888574338e-01    
1.9873285787e+02    1.0008604858e+00    8.7676615974e-01    
2.1747922676e+02    1.0008239100e+00    8.4084965837e-01    
2.3622559985e+02    1.0007873343e+00    8.0493314893e-01    
2.5869585836e+02    1.0007559605e+00    7.6617701039e-01    
2.8116612080e+02    1.0007245868e+00    7.2742086506e-01    
3.0810003046e+02    1.0006981187e+00    6.8701258391e-01    
3.3503394346e+02    1.0006716505e+00    6.4660429774e-01    
3.6731821791e+02    1.0006480545e+00    6.0574715533e-01    
3.9960249492e+02    1.0006244584e+00    5.6489000969e-01    
4.3829999301e+02    1.0006016674e+00    5.2471124699e-01    
4.7699749286e+02    1.0005788764e+00    4.8453248245e-01    
5.2338220973e+02    1.0005533551e+00    4.4592142766e-01    
5.6976692774e+02    1.0005278338e+00    4.0731037192e-01    
6.2536593858e+02    1.0004982595e+00    3.7113432563e-01    
6.8096495047e+02    1.0004686852e+00    3.3495827865e-01    
