title="THE FLOW FIELD OF ONEFLOW"
variables=
"x"
"cf"
zone  i = 265 
-2.0000000000e+00   1.9996276978e-02    
-1.9127381779e+00   1.9996188740e-02    
-1.8254763558e+00   1.9996100502e-02    
-1.7457291593e+00   1.9995916256e-02    
-1.6659819628e+00   1.9995732010e-02    
-1.5930928287e+00   1.9995483831e-02    
-1.5202036946e+00   1.9995235653e-02    
-1.4535725224e+00   1.9994898376e-02    
-1.3869413503e+00   1.9994561100e-02    
-1.3260195618e+00   1.9994156755e-02    
-1.2650977734e+00   1.9993752409e-02    
-1.2093837960e+00   1.9993275131e-02    
-1.1536698187e+00   1.9992797852e-02    
-1.1027049562e+00   1.9992255097e-02    
-1.0517400937e+00   1.9991712341e-02    
-1.0051047493e+00   1.9991101938e-02    
-9.5846940490e-01   1.9990491535e-02    
-9.1577962723e-01   1.9989814809e-02    
-8.7308984955e-01   1.9989138083e-02    
-8.3399417119e-01   1.9988392755e-02    
-7.9489849283e-01   1.9987647426e-02    
-7.5907503684e-01   1.9986831787e-02    
-7.2325158085e-01   1.9986016147e-02    
-6.9040541066e-01   1.9985126650e-02    
-6.5755924047e-01   1.9984237153e-02    
-6.2741993169e-01   1.9983269756e-02    
-5.9728062291e-01   1.9982302358e-02    
-5.6960003689e-01   1.9981251404e-02    
-5.4191945086e-01   1.9980200449e-02    
-5.1646969174e-01   1.9979059182e-02    
-4.9101993263e-01   1.9977917915e-02    
-4.6759147110e-01   1.9976677265e-02    
-4.4416300957e-01   1.9975436615e-02    
-4.2256295776e-01   1.9974085672e-02    
-4.0096290595e-01   1.9972734729e-02    
-3.8101342941e-01   1.9971258146e-02    
-3.6106395287e-01   1.9969781561e-02    
-3.4260080640e-01   1.9968162728e-02    
-3.2413765994e-01   1.9966543894e-02    
-3.0700883542e-01   1.9964759717e-02    
-2.8988001090e-01   1.9962975539e-02    
-2.7394448573e-01   1.9960996944e-02    
-2.5800896056e-01   1.9959018348e-02    
-2.4313553665e-01   1.9956764470e-02    
-2.2826211274e-01   1.9954510591e-02    
-2.1432833634e-01   1.9951897211e-02    
-2.0039455994e-01   1.9949283829e-02    
-1.8728571347e-01   1.9946407155e-02    
-1.7417686701e-01   1.9943530479e-02    
-1.6178502459e-01   1.9940922212e-02    
-1.4939318218e-01   1.9938313944e-02    
-1.3761632107e-01   1.9934829733e-02    
-1.2583945996e-01   1.9931345518e-02    
-1.1458062058e-01   1.9920200047e-02    
-1.0332178120e-01   1.9909054538e-02    
-9.2488268893e-02   1.9887144399e-02    
-8.1654756581e-02   1.9865234122e-02    
-7.1157378410e-02   1.9887160191e-02    
-6.0660000238e-02   1.9909086137e-02    
-5.0412330690e-02   2.0075530094e-02    
-4.0164661143e-02   2.0241964665e-02    
-3.0082330572e-02   2.0221718543e-02    
-2.0000000000e-02   2.0201471710e-02    
-1.0000000000e-02   1.8527103737e-02    
0.0000000000e+00    1.6852160563e-02    
1.0000000000e-02    1.4116439749e-02    
2.0000000000e-02    1.1379558363e-02    
3.0000000000e-02    9.6061539456e-03    
4.0000000000e-02    7.8323245915e-03    
5.0000000000e-02    6.9971492373e-03    
6.0000000000e-02    6.1618806977e-03    
7.0000000000e-02    5.7183920259e-03    
8.0000000000e-02    5.2748800943e-03    
9.0000000000e-02    4.9883046355e-03    
1.0000000000e-01    4.7017209752e-03    
1.1000000000e-01    4.4953386611e-03    
1.2000000000e-01    4.2889525730e-03    
1.3000000000e-01    4.1301249793e-03    
1.4000000000e-01    3.9712953253e-03    
1.5000000000e-01    3.8438545935e-03    
1.6000000000e-01    3.7164126206e-03    
1.7000000000e-01    3.6108529912e-03    
1.8000000000e-01    3.5052925591e-03    
1.9000000000e-01    3.4160603838e-03    
2.0000000000e-01    3.3268276639e-03    
2.1000000000e-01    3.2500229276e-03    
2.2000000000e-01    3.1732178065e-03    
2.3000000000e-01    3.1062275988e-03    
2.4000000000e-01    3.0392371106e-03    
2.5000000000e-01    2.9800966508e-03    
2.6000000000e-01    2.9209559808e-03    
2.7000000000e-01    2.8682539822e-03    
2.8000000000e-01    2.8155518227e-03    
2.9000000000e-01    2.7681847133e-03    
3.0000000000e-01    2.7208174782e-03    
3.1000000000e-01    2.6779469329e-03    
3.2000000000e-01    2.6350762878e-03    
3.3000000000e-01    2.5960279276e-03    
3.4000000000e-01    2.5569794871e-03    
3.5000000000e-01    2.5212195473e-03    
3.6000000000e-01    2.4854595419e-03    
3.7000000000e-01    2.4525493459e-03    
3.8000000000e-01    2.4196390958e-03    
3.9000000000e-01    2.3892206269e-03    
4.0000000000e-01    2.3588021129e-03    
4.1000000000e-01    2.3305758781e-03    
4.2000000000e-01    2.3023496053e-03    
4.3000000000e-01    2.2760654110e-03    
4.4000000000e-01    2.2497811845e-03    
4.5000000000e-01    2.2252265538e-03    
4.6000000000e-01    2.2006718955e-03    
4.7000000000e-01    2.1776660778e-03    
4.8000000000e-01    2.1546602364e-03    
4.9000000000e-01    2.1330477177e-03    
5.0000000000e-01    2.1114351784e-03    
5.1000000000e-01    2.0910817391e-03    
5.2000000000e-01    2.0707282819e-03    
5.3000000000e-01    2.0515171330e-03    
5.4000000000e-01    2.0323059684e-03    
5.5000000000e-01    2.0141351183e-03    
5.6000000000e-01    1.9959642544e-03    
5.7000000000e-01    1.9787440857e-03    
5.8000000000e-01    1.9615239047e-03    
5.9000000000e-01    1.9451753859e-03    
6.0000000000e-01    1.9288268561e-03    
6.1000000000e-01    1.9132799548e-03    
6.2000000000e-01    1.8977330435e-03    
6.3000000000e-01    1.8829254901e-03    
6.4000000000e-01    1.8681179276e-03    
6.5000000000e-01    1.8539941391e-03    
6.6000000000e-01    1.8398703424e-03    
6.7000000000e-01    1.8263805522e-03    
6.8000000000e-01    1.8128907545e-03    
6.9000000000e-01    1.7999902612e-03    
7.0000000000e-01    1.7870897609e-03    
7.1000000000e-01    1.7747383049e-03    
7.2000000000e-01    1.7623868424e-03    
7.3000000000e-01    1.7505480687e-03    
7.4000000000e-01    1.7387092890e-03    
7.5000000000e-01    1.7273502938e-03    
7.6000000000e-01    1.7159912930e-03    
7.7000000000e-01    1.7050822315e-03    
7.8000000000e-01    1.6941731646e-03    
7.9000000000e-01    1.6836869157e-03    
8.0000000000e-01    1.6732006616e-03    
8.1000000000e-01    1.6631125368e-03    
8.2000000000e-01    1.6530244070e-03    
8.3000000000e-01    1.6433118987e-03    
8.4000000000e-01    1.6335993856e-03    
8.5000000000e-01    1.6242419476e-03    
8.6000000000e-01    1.6148845049e-03    
8.7000000000e-01    1.6058633604e-03    
8.8000000000e-01    1.5968422113e-03    
8.9000000000e-01    1.5881401847e-03    
9.0000000000e-01    1.5794381536e-03    
9.1000000000e-01    1.5710395218e-03    
9.2000000000e-01    1.5626408855e-03    
9.3000000000e-01    1.5545312465e-03    
9.4000000000e-01    1.5464216031e-03    
9.5000000000e-01    1.5385877587e-03    
9.6000000000e-01    1.5307539100e-03    
9.7000000000e-01    1.5231837612e-03    
9.8000000000e-01    1.5156136080e-03    
9.9000000000e-01    1.5082960599e-03    
1.0000000000e+00    1.5009785076e-03    
1.0100000000e+00    1.4939033843e-03    
1.0200000000e+00    1.4868282567e-03    
1.0300000000e+00    1.4799862223e-03    
1.0400000000e+00    1.4731441837e-03    
1.0500000000e+00    1.4665266704e-03    
1.0600000000e+00    1.4599091528e-03    
1.0700000000e+00    1.4535082936e-03    
1.0800000000e+00    1.4471074302e-03    
1.0900000000e+00    1.4409159962e-03    
1.1000000000e+00    1.4347245581e-03    
1.1100000000e+00    1.4287358995e-03    
1.1200000000e+00    1.4227472369e-03    
1.1300000000e+00    1.4169552268e-03    
1.1400000000e+00    1.4111632127e-03    
1.1500000000e+00    1.4055621934e-03    
1.1600000000e+00    1.3999611702e-03    
1.1700000000e+00    1.3945459023e-03    
1.1800000000e+00    1.3891306305e-03    
1.1900000000e+00    1.3838962434e-03    
1.2000000000e+00    1.3786618526e-03    
1.2100000000e+00    1.3736037978e-03    
1.2200000000e+00    1.3685457393e-03    
1.2300000000e+00    1.3636597449e-03    
1.2400000000e+00    1.3587737469e-03    
1.2500000000e+00    1.3540557748e-03    
1.2600000000e+00    1.3493377992e-03    
1.2700000000e+00    1.3447840045e-03    
1.2800000000e+00    1.3402302063e-03    
1.2900000000e+00    1.3358368989e-03    
1.3000000000e+00    1.3314435882e-03    
1.3100000000e+00    1.3272071981e-03    
1.3200000000e+00    1.3229708047e-03    
1.3300000000e+00    1.3188878497e-03    
1.3400000000e+00    1.3148048915e-03    
1.3500000000e+00    1.3108719499e-03    
1.3600000000e+00    1.3069390053e-03    
1.3700000000e+00    1.3031526919e-03    
1.3800000000e+00    1.2993663756e-03    
1.3900000000e+00    1.2957233244e-03    
1.4000000000e+00    1.2920802703e-03    
1.4100000000e+00    1.2885771207e-03    
1.4200000000e+00    1.2850739683e-03    
1.4300000000e+00    1.2817073610e-03    
1.4400000000e+00    1.2783407511e-03    
1.4500000000e+00    1.2751073263e-03    
1.4600000000e+00    1.2718738990e-03    
1.4700000000e+00    1.2687703093e-03    
1.4800000000e+00    1.2656667172e-03    
1.4900000000e+00    1.2626896343e-03    
1.5000000000e+00    1.2597125491e-03    
1.5100000000e+00    1.2568587006e-03    
1.5200000000e+00    1.2540048498e-03    
1.5300000000e+00    1.2512710232e-03    
1.5400000000e+00    1.2485371944e-03    
1.5500000000e+00    1.2459203124e-03    
1.5600000000e+00    1.2433034284e-03    
1.5700000000e+00    1.2408005201e-03    
1.5800000000e+00    1.2382976098e-03    
1.5900000000e+00    1.2359059691e-03    
1.6000000000e+00    1.2335143265e-03    
1.6100000000e+00    1.2312313708e-03    
1.6200000000e+00    1.2289484134e-03    
1.6300000000e+00    1.2267720596e-03    
1.6400000000e+00    1.2245957042e-03    
1.6500000000e+00    1.2225238996e-03    
1.6600000000e+00    1.2204520935e-03    
1.6700000000e+00    1.2184837757e-03    
1.6800000000e+00    1.2165154563e-03    
1.6900000000e+00    1.2146491642e-03    
1.7000000000e+00    1.2127828707e-03    
1.7100000000e+00    1.2110193841e-03    
1.7200000000e+00    1.2092558963e-03    
1.7300000000e+00    1.2075942296e-03    
1.7400000000e+00    1.2059325617e-03    
1.7500000000e+00    1.2043769466e-03    
1.7600000000e+00    1.2028213304e-03    
1.7700000000e+00    1.2013698270e-03    
1.7800000000e+00    1.1999183226e-03    
1.7900000000e+00    1.1985839298e-03    
1.8000000000e+00    1.1972495361e-03    
1.8100000000e+00    1.1960281266e-03    
1.8200000000e+00    1.1948067164e-03    
1.8300000000e+00    1.1937272154e-03    
1.8400000000e+00    1.1926477138e-03    
1.8500000000e+00    1.1916768467e-03    
1.8600000000e+00    1.1907059791e-03    
1.8700000000e+00    1.1899434485e-03    
1.8800000000e+00    1.1891809175e-03    
1.8900000000e+00    1.1886191741e-03    
1.9000000000e+00    1.1880574303e-03    
1.9100000000e+00    1.1878453678e-03    
1.9200000000e+00    1.1876333051e-03    
1.9300000000e+00    1.1871034665e-03    
1.9400000000e+00    1.1865736276e-03    
1.9500000000e+00    1.1876022630e-03    
1.9600000000e+00    1.1886308988e-03    
1.9700000000e+00    1.1906933988e-03    
1.9800000000e+00    1.1927558999e-03    
1.9900000000e+00    1.1931922488e-03    
2.0000000000e+00    1.1936285979e-03    
