title="THE FLOW FIELD OF ONEFLOW"
variables=
"ETA"
"u/U"
"v/U * sqrt( 2 * Rex )"
zone  i = 169 
0.0000000000e+00    0.0000000000e+00    0.0000000000e+00    
1.7674642345e-01    4.7561595753e-01    7.9838434515e-03    
3.5350435591e-01    9.5123191505e-01    1.5968206779e-02    
5.3028010908e-01    9.6685413440e-01    1.6873933961e-02    
7.0707157952e-01    9.8247635376e-01    1.7779741627e-02    
8.8385390678e-01    9.8799001238e-01    1.7749065473e-02    
1.0606420071e+00    9.9350367100e-01    1.7718388311e-02    
1.2374232086e+00    9.9552656021e-01    1.7539437430e-02    
1.4142065626e+00    9.9754944942e-01    1.7360484369e-02    
1.5909860417e+00    9.9830699566e-01    1.7299482113e-02    
1.7677663340e+00    9.9906454190e-01    1.7238479575e-02    
1.9445446824e+00    9.9935217480e-01    1.7177750533e-02    
2.1213233426e+00    9.9963980770e-01    1.7117021383e-02    
2.2981010703e+00    9.9975011850e-01    1.7105158457e-02    
2.4748789183e+00    9.9986042929e-01    1.7093295523e-02    
2.6516563405e+00    9.9990306202e-01    1.7072293455e-02    
2.8284338102e+00    9.9994569476e-01    1.7051291381e-02    
3.0052110845e+00    9.9996227464e-01    1.7046584875e-02    
3.1819883777e+00    9.9997885452e-01    1.7041878370e-02    
3.3587655871e+00    9.9998533769e-01    1.7030569980e-02    
3.5355428047e+00    9.9999182086e-01    1.7019261590e-02    
3.7123199843e+00    9.9999436966e-01    1.7013617305e-02    
3.8890971675e+00    9.9999691846e-01    1.7007973020e-02    
4.0658743364e+00    9.9999792719e-01    1.6998905477e-02    
4.2426515075e+00    9.9999893593e-01    1.6989837933e-02    
4.4194286723e+00    9.9999933943e-01    1.6982598764e-02    
4.5962058385e+00    9.9999974293e-01    1.6975359595e-02    
4.7729830038e+00    9.9999990775e-01    1.6966434584e-02    
4.9497601703e+00    1.0000000726e+00    1.6957509573e-02    
5.1265373369e+00    1.0000001429e+00    1.6948905404e-02    
5.3033145048e+00    1.0000002133e+00    1.6940301235e-02    
5.4800916742e+00    1.0000002461e+00    1.6930769847e-02    
5.6568688448e+00    1.0000002789e+00    1.6921238458e-02    
5.8336460170e+00    1.0000002967e+00    1.6911406761e-02    
6.0104231905e+00    1.0000003146e+00    1.6901575063e-02    
6.1872003660e+00    1.0000003264e+00    1.6891096827e-02    
6.3639775428e+00    1.0000003382e+00    1.6880618591e-02    
6.5407547217e+00    1.0000003475e+00    1.6869578930e-02    
6.7175319020e+00    1.0000003569e+00    1.6858539270e-02    
6.8943090846e+00    1.0000003653e+00    1.6846918356e-02    
7.0710862686e+00    1.0000003736e+00    1.6835297443e-02    
7.2478634550e+00    1.0000003816e+00    1.6823006372e-02    
7.4246406428e+00    1.0000003895e+00    1.6810715302e-02    
7.6014178331e+00    1.0000003973e+00    1.6797824253e-02    
7.7781950250e+00    1.0000004050e+00    1.6784933204e-02    
7.9549722195e+00    1.0000004127e+00    1.6771321021e-02    
8.1317494155e+00    1.0000004205e+00    1.6757708838e-02    
8.3085266143e+00    1.0000004282e+00    1.6743454124e-02    
8.4853038147e+00    1.0000004359e+00    1.6729199409e-02    
8.6620810180e+00    1.0000004437e+00    1.6714196829e-02    
8.8388582229e+00    1.0000004514e+00    1.6699194249e-02    
9.0156354308e+00    1.0000004593e+00    1.6683503721e-02    
9.1924126404e+00    1.0000004671e+00    1.6667813192e-02    
9.3691898531e+00    1.0000004750e+00    1.6651360205e-02    
9.5459670675e+00    1.0000004829e+00    1.6634907217e-02    
9.7227442852e+00    1.0000004909e+00    1.6617729951e-02    
9.8995215047e+00    1.0000004990e+00    1.6600552685e-02    
1.0076298727e+01    1.0000005071e+00    1.6582605143e-02    
1.0253075952e+01    1.0000005152e+00    1.6564657601e-02    
1.0429853180e+01    1.0000005235e+00    1.6545963439e-02    
1.0606630410e+01    1.0000005318e+00    1.6527269276e-02    
1.0783407644e+01    1.0000005403e+00    1.6507804920e-02    
1.0960184879e+01    1.0000005487e+00    1.6488340563e-02    
1.1136962118e+01    1.0000005573e+00    1.6468122779e-02    
1.1313739359e+01    1.0000005659e+00    1.6447904994e-02    
1.1490516604e+01    1.0000005748e+00    1.6426926346e-02    
1.1667293851e+01    1.0000005836e+00    1.6405947697e-02    
1.1844071102e+01    1.0000005926e+00    1.6384226318e-02    
1.2020848355e+01    1.0000006016e+00    1.6362504937e-02    
1.2197625611e+01    1.0000006109e+00    1.6340042318e-02    
1.2374402870e+01    1.0000006201e+00    1.6317579699e-02    
1.2551180133e+01    1.0000006296e+00    1.6294403945e-02    
1.2727957398e+01    1.0000006391e+00    1.6271228192e-02    
1.2904734667e+01    1.0000006490e+00    1.6247342137e-02    
1.3081511939e+01    1.0000006588e+00    1.6223456082e-02    
1.3258289214e+01    1.0000006692e+00    1.6198910597e-02    
1.3435066492e+01    1.0000006795e+00    1.6174365112e-02    
1.3611843774e+01    1.0000006906e+00    1.6149159621e-02    
1.3788621058e+01    1.0000007017e+00    1.6123954129e-02    
1.3965398346e+01    1.0000007146e+00    1.6098223134e-02    
1.4142175636e+01    1.0000007274e+00    1.6072492139e-02    
1.4318952931e+01    1.0000007440e+00    1.6046135799e-02    
1.4495730229e+01    1.0000007607e+00    1.6019779459e-02    
1.4678327370e+01    1.0000007856e+00    1.5992749905e-02    
1.4860924515e+01    1.0000008104e+00    1.5965720350e-02    
1.5055352945e+01    1.0000008481e+00    1.5938134839e-02    
1.5249781378e+01    1.0000008857e+00    1.5910549328e-02    
1.5462442047e+01    1.0000009393e+00    1.5882367429e-02    
1.5675102718e+01    1.0000009928e+00    1.5854185530e-02    
1.5912996815e+01    1.0000010653e+00    1.5825484546e-02    
1.6150890915e+01    1.0000011378e+00    1.5796783561e-02    
1.6421850361e+01    1.0000012328e+00    1.5767609362e-02    
1.6692809812e+01    1.0000013278e+00    1.5738435162e-02    
1.7005755106e+01    1.0000014495e+00    1.5708911998e-02    
1.7318700404e+01    1.0000015711e+00    1.5679388832e-02    
1.7683934295e+01    1.0000017247e+00    1.5649696481e-02    
1.8049168191e+01    1.0000018783e+00    1.5620004130e-02    
1.8478714870e+01    1.0000020702e+00    1.5590440791e-02    
1.8908261556e+01    1.0000022620e+00    1.5560877452e-02    
1.9416262513e+01    1.0000024999e+00    1.5531911263e-02    
1.9924263479e+01    1.0000027378e+00    1.5502945074e-02    
2.0527443068e+01    1.0000030313e+00    1.5475293142e-02    
2.1130622669e+01    1.0000033247e+00    1.5447641210e-02    
2.1848838707e+01    1.0000036851e+00    1.5422403015e-02    
2.2567054759e+01    1.0000040455e+00    1.5397164820e-02    
2.3423952281e+01    1.0000044868e+00    1.5375985827e-02    
2.4280849820e+01    1.0000049282e+00    1.5354806833e-02    
2.5304639519e+01    1.0000054677e+00    1.5340176029e-02    
2.6328429240e+01    1.0000060073e+00    1.5325545224e-02    
2.7552816219e+01    1.0000066670e+00    1.5321231477e-02    
2.8777203224e+01    1.0000073267e+00    1.5316917731e-02    
3.0242496629e+01    1.0000081348e+00    1.5328767737e-02    
3.1707790066e+01    1.0000089429e+00    1.5340617744e-02    
3.3462230141e+01    1.0000099360e+00    1.5377839461e-02    
3.5216670254e+01    1.0000109291e+00    1.5415061179e-02    
3.7318016499e+01    1.0000121511e+00    1.5492206970e-02    
3.9419362792e+01    1.0000133731e+00    1.5569352763e-02    
4.1936795516e+01    1.0000148655e+00    1.5708633151e-02    
4.4454228298e+01    1.0000163579e+00    1.5847913542e-02    
4.7470626162e+01    1.0000181332e+00    1.6080436335e-02    
5.0487024096e+01    1.0000199085e+00    1.6312959134e-02    
5.4101692626e+01    1.0000218995e+00    1.6675619271e-02    
5.7716361234e+01    1.0000238906e+00    1.7038279416e-02    
6.2048302129e+01    1.0000258869e+00    1.7561960756e-02    
6.6380243105e+01    1.0000278832e+00    1.8085642106e-02    
7.1572071964e+01    1.0000294922e+00    1.8772718485e-02    
7.6763900893e+01    1.0000311011e+00    1.9459794874e-02    
8.2986542341e+01    1.0000317949e+00    2.0257255836e-02    
8.9209183818e+01    1.0000324888e+00    2.1054716802e-02    
9.6667498609e+01    1.0000317766e+00    2.1840136011e-02    
1.0412581333e+02    1.0000310643e+00    2.2625555213e-02    
1.1306534266e+02    1.0000287421e+00    2.3225123854e-02    
1.2200487173e+02    1.0000264200e+00    2.3824692478e-02    
1.3271992082e+02    1.0000227589e+00    2.4065759351e-02    
1.4343496930e+02    1.0000190978e+00    2.4306826211e-02    
1.5627829610e+02    1.0000148202e+00    2.4076265144e-02    
1.6912162171e+02    1.0000105426e+00    2.3845704099e-02    
1.8451604938e+02    1.0000065667e+00    2.3104545489e-02    
1.9991047478e+02    1.0000025909e+00    2.2363386989e-02    
2.1836280975e+02    9.9999968800e-01    2.1104698429e-02    
2.3681514030e+02    9.9999678515e-01    1.9846010170e-02    
2.5893285590e+02    9.9999533286e-01    1.8078622823e-02    
2.8105056311e+02    9.9999388057e-01    1.6311236145e-02    
3.0756180314e+02    9.9999378440e-01    1.4155793759e-02    
3.3407302914e+02    9.9999368822e-01    1.2000352514e-02    
3.6585059140e+02    9.9999446467e-01    9.7912682456e-03    
3.9762813451e+02    9.9999524112e-01    7.5821853092e-03    
4.3571821325e+02    9.9999625748e-01    5.7597485698e-03    
4.7380827149e+02    9.9999727385e-01    3.9373128107e-03    
5.1946489185e+02    9.9999805888e-01    2.7691724543e-03    
5.6512149551e+02    9.9999884390e-01    1.6010325252e-03    
6.1984777931e+02    9.9999925636e-01    1.0387628560e-03    
6.7457405304e+02    9.9999966883e-01    4.7649329023e-04    
7.4017169470e+02    9.9999981229e-01    2.8312894231e-04    
8.0576933209e+02    9.9999995575e-01    8.9764606975e-05    
8.8439792087e+02    9.9999998238e-01    4.7271311517e-05    
9.6302650852e+02    1.0000000090e+00    4.7780166652e-06    
1.0572746377e+03    1.0000000075e+00    1.1423538155e-06    
1.1515227667e+03    1.0000000060e+00    -2.4933090308e-06   
1.2644932593e+03    1.0000000037e+00    -1.5888553483e-06   
1.3774637519e+03    1.0000000013e+00    -6.8440166543e-07   
1.5128758096e+03    1.0000000007e+00    -3.6320351336e-07   
1.6482878674e+03    1.0000000001e+00    -4.2005361253e-08   
1.8105995120e+03    1.0000000000e+00    -1.5300034410e-08   
1.9729111565e+03    9.9999999999e-01    1.1405292433e-08    
2.1674659948e+03    9.9999999999e-01    6.8215105918e-09    
2.3620208330e+03    1.0000000000e+00    2.2377287508e-09    
2.5952239789e+03    1.0000000000e+00    1.1516148531e-09    
2.8284271247e+03    1.0000000000e+00    6.5500955300e-11    
zone  i = 169 
0.0000000000e+00    0.0000000000e+00    0.0000000000e+00    
1.2497859231e-01    4.7561594627e-01    1.1325996895e-02    
2.4996532287e-01    9.5123189254e-01    2.2652731308e-02    
3.7496465458e-01    9.6685411352e-01    2.3938563120e-02    
4.9997510014e-01    9.8247633449e-01    2.5224509191e-02    
6.2497908009e-01    9.8798999087e-01    2.5191042376e-02    
7.4998714206e-01    9.9350364725e-01    2.5157574456e-02    
8.7499032582e-01    9.9552653530e-01    2.4911655369e-02    
9.9999503153e-01    9.9754942335e-01    2.4665733286e-02    
1.1249969971e+00    9.9830696878e-01    2.4587898668e-02    
1.2499995374e+00    9.9906451421e-01    2.4510063691e-02    
1.3750007031e+00    9.9935214642e-01    2.4432631775e-02    
1.5000020891e+00    9.9963977863e-01    2.4355199721e-02    
1.6250028154e+00    9.9975008872e-01    2.4347403851e-02    
1.7500036266e+00    9.9986039881e-01    2.4339607976e-02    
1.8750041365e+00    9.9990303079e-01    2.4319307837e-02    
2.0000046798e+00    9.9994566276e-01    2.4299007692e-02    
2.1250050846e+00    9.9996224180e-01    2.4302257733e-02    
2.2500055026e+00    9.9997882085e-01    2.4305507775e-02    
2.3750058609e+00    9.9998530309e-01    2.4299957423e-02    
2.5000062249e+00    9.9999178533e-01    2.4294407072e-02    
2.6250065615e+00    9.9999433311e-01    2.4297444434e-02    
2.7500069005e+00    9.9999688088e-01    2.4300481797e-02    
2.8750072289e+00    9.9999788849e-01    2.4299297851e-02    
3.0000075586e+00    9.9999889610e-01    2.4298113905e-02    
3.1250078833e+00    9.9999929836e-01    2.4300175082e-02    
3.2500082088e+00    9.9999970063e-01    2.4302236259e-02    
3.3750085330e+00    9.9999986409e-01    2.4302614265e-02    
3.5000088578e+00    1.0000000276e+00    2.4302992270e-02    
3.6250091822e+00    1.0000000964e+00    2.4304564724e-02    
3.7500095070e+00    1.0000001653e+00    2.4306137178e-02    
3.8750098323e+00    1.0000001965e+00    2.4307179140e-02    
4.0000101581e+00    1.0000002277e+00    2.4308221103e-02    
4.1250104843e+00    1.0000002438e+00    2.4309658105e-02    
4.2500108111e+00    1.0000002599e+00    2.4311095107e-02    
4.3750111385e+00    1.0000002699e+00    2.4312475842e-02    
4.5000114665e+00    1.0000002798e+00    2.4313856576e-02    
4.6250117951e+00    1.0000002872e+00    2.4315338557e-02    
4.7500121243e+00    1.0000002945e+00    2.4316820538e-02    
4.8750124541e+00    1.0000003007e+00    2.4318411648e-02    
5.0000127846e+00    1.0000003068e+00    2.4320002758e-02    
5.1250131158e+00    1.0000003124e+00    2.4321611644e-02    
5.2500134475e+00    1.0000003180e+00    2.4323220530e-02    
5.3750137800e+00    1.0000003233e+00    2.4324979059e-02    
5.5000141131e+00    1.0000003286e+00    2.4326737588e-02    
5.6250144469e+00    1.0000003336e+00    2.4328504998e-02    
5.7500147813e+00    1.0000003386e+00    2.4330272408e-02    
5.8750151165e+00    1.0000003434e+00    2.4332188129e-02    
6.0000154523e+00    1.0000003483e+00    2.4334103849e-02    
6.1250157888e+00    1.0000003530e+00    2.4336044583e-02    
6.2500161260e+00    1.0000003576e+00    2.4337985316e-02    
6.3750164640e+00    1.0000003622e+00    2.4340058568e-02    
6.5000168025e+00    1.0000003667e+00    2.4342131820e-02    
6.6250171419e+00    1.0000003711e+00    2.4344251787e-02    
6.7500174819e+00    1.0000003755e+00    2.4346371755e-02    
6.8750178228e+00    1.0000003798e+00    2.4348608498e-02    
7.0000181642e+00    1.0000003841e+00    2.4350845242e-02    
7.1250185065e+00    1.0000003883e+00    2.4353145966e-02    
7.2500188494e+00    1.0000003925e+00    2.4355446691e-02    
7.3750191932e+00    1.0000003965e+00    2.4357852984e-02    
7.5000195376e+00    1.0000004006e+00    2.4360259277e-02    
7.6250198829e+00    1.0000004046e+00    2.4362741529e-02    
7.7500202288e+00    1.0000004086e+00    2.4365223780e-02    
7.8750205756e+00    1.0000004125e+00    2.4367804708e-02    
8.0000209230e+00    1.0000004164e+00    2.4370385637e-02    
8.1250212713e+00    1.0000004202e+00    2.4373048805e-02    
8.2500216203e+00    1.0000004240e+00    2.4375711974e-02    
8.3750219702e+00    1.0000004277e+00    2.4378471707e-02    
8.5000223207e+00    1.0000004314e+00    2.4381231441e-02    
8.6250226722e+00    1.0000004351e+00    2.4384073495e-02    
8.7500230243e+00    1.0000004388e+00    2.4386915549e-02    
8.8750233773e+00    1.0000004424e+00    2.4389856348e-02    
9.0000237311e+00    1.0000004460e+00    2.4392797148e-02    
9.1250240857e+00    1.0000004495e+00    2.4395814207e-02    
9.2500244411e+00    1.0000004531e+00    2.4398831265e-02    
9.3750247973e+00    1.0000004566e+00    2.4401955160e-02    
9.5000251543e+00    1.0000004602e+00    2.4405079054e-02    
9.6250255122e+00    1.0000004639e+00    2.4408268679e-02    
9.7500258709e+00    1.0000004675e+00    2.4411458305e-02    
9.8750262304e+00    1.0000004716e+00    2.4414783222e-02    
1.0000026591e+01    1.0000004756e+00    2.4418108139e-02    
1.0125026952e+01    1.0000004808e+00    2.4421519368e-02    
1.0250027314e+01    1.0000004860e+00    2.4424930597e-02    
1.0379142925e+01    1.0000004948e+00    2.4428352395e-02    
1.0508258536e+01    1.0000005036e+00    2.4431774194e-02    
1.0645740126e+01    1.0000005189e+00    2.4435273211e-02    
1.0783221717e+01    1.0000005343e+00    2.4438772229e-02    
1.0933595441e+01    1.0000005576e+00    2.4442322251e-02    
1.1083969165e+01    1.0000005810e+00    2.4445872274e-02    
1.1252185608e+01    1.0000006134e+00    2.4449501629e-02    
1.1420402053e+01    1.0000006458e+00    2.4453130984e-02    
1.1611999221e+01    1.0000006884e+00    2.4456831228e-02    
1.1803596389e+01    1.0000007310e+00    2.4460531473e-02    
1.2024882022e+01    1.0000007849e+00    2.4464317862e-02    
1.2246167656e+01    1.0000008389e+00    2.4468104251e-02    
1.2504426896e+01    1.0000009055e+00    2.4471982490e-02    
1.2762686138e+01    1.0000009720e+00    2.4475860729e-02    
1.3066421368e+01    1.0000010528e+00    2.4479844096e-02    
1.3370156600e+01    1.0000011335e+00    2.4483827463e-02    
1.3729367360e+01    1.0000012300e+00    2.4487938760e-02    
1.4088578123e+01    1.0000013265e+00    2.4492050058e-02    
1.4515090312e+01    1.0000014406e+00    2.4496315401e-02    
1.4941602504e+01    1.0000015546e+00    2.4500580744e-02    
1.5449457712e+01    1.0000016879e+00    2.4505054683e-02    
1.5957312924e+01    1.0000018212e+00    2.4509528622e-02    
1.6563230708e+01    1.0000019757e+00    2.4514281412e-02    
1.7169148496e+01    1.0000021302e+00    2.4519034201e-02    
1.7893076820e+01    1.0000023075e+00    2.4524197392e-02    
1.8617005149e+01    1.0000024849e+00    2.4529360583e-02    
1.9482777107e+01    1.0000026868e+00    2.4535129085e-02    
2.0348549072e+01    1.0000028887e+00    2.4540897586e-02    
2.1384667522e+01    1.0000031169e+00    2.4547609541e-02    
2.2420785981e+01    1.0000033450e+00    2.4554321496e-02    
2.3661361911e+01    1.0000036009e+00    2.4562517833e-02    
2.4901937854e+01    1.0000038568e+00    2.4570714170e-02    
2.6387813381e+01    1.0000041421e+00    2.4581303079e-02    
2.7873688927e+01    1.0000044275e+00    2.4591891988e-02    
2.9653781902e+01    1.0000047442e+00    2.4606359135e-02    
3.1433874901e+01    1.0000050609e+00    2.4620826282e-02    
3.3566789373e+01    1.0000054111e+00    2.4641601203e-02    
3.5699703876e+01    1.0000057614e+00    2.4662376124e-02    
3.8255659450e+01    1.0000061473e+00    2.4693328064e-02    
4.0811615065e+01    1.0000065333e+00    2.4724280003e-02    
4.3874758668e+01    1.0000069559e+00    2.4771341603e-02    
4.6937902325e+01    1.0000073784e+00    2.4818403204e-02    
5.0609078480e+01    1.0000078333e+00    2.4890059586e-02    
5.4280254707e+01    1.0000082883e+00    2.4961715970e-02    
5.8680325523e+01    1.0000087593e+00    2.5068676291e-02    
6.3080396431e+01    1.0000092303e+00    2.5175636613e-02    
6.8354220600e+01    1.0000096775e+00    2.5328063232e-02    
7.3628044883e+01    1.0000101247e+00    2.5480489855e-02    
7.9949246660e+01    1.0000104727e+00    2.5679980124e-02    
8.6270448566e+01    1.0000108207e+00    2.5879470397e-02    
9.3847133688e+01    1.0000109577e+00    2.6102563783e-02    
1.0142381892e+02    1.0000110947e+00    2.6325657171e-02    
1.1050542550e+02    1.0000109000e+00    2.6496437464e-02    
1.1958703205e+02    1.0000107053e+00    2.6667217756e-02    
1.3047254167e+02    1.0000101104e+00    2.6620132567e-02    
1.4135805079e+02    1.0000095156e+00    2.6573047379e-02    
1.5440582984e+02    1.0000085665e+00    2.6030969178e-02    
1.6745360711e+02    1.0000076174e+00    2.5488891052e-02    
1.8309320342e+02    1.0000064839e+00    2.4137652402e-02    
1.9873279520e+02    1.0000053504e+00    2.2786414145e-02    
2.1747908186e+02    1.0000042659e+00    2.0513616240e-02    
2.3622535958e+02    1.0000031814e+00    1.8240819420e-02    
2.5869549395e+02    1.0000023474e+00    1.5386472575e-02    
2.8116561467e+02    1.0000015134e+00    1.2532127465e-02    
3.0809936510e+02    1.0000010162e+00    9.8091669697e-03    
3.3503309953e+02    1.0000005190e+00    7.0862080934e-03    
3.6731719727e+02    1.0000003079e+00    5.1209491108e-03    
3.9960128079e+02    1.0000000968e+00    3.1556909935e-03    
4.3829859832e+02    1.0000000456e+00    2.1001669243e-03    
4.7699590649e+02    9.9999999443e-01    1.0446431102e-03    
5.2338043794e+02    9.9999999482e-01    6.3735913486e-04    
5.6976496502e+02    9.9999999522e-01    2.3007519802e-04    
6.2536377098e+02    9.9999999899e-01    1.2609491269e-04    
6.8096257561e+02    1.0000000028e+00    2.2114629832e-05    
