title="THE FLOW FIELD OF ONEFLOW"
variables=
"x"
"y"
"z"
"-cp"
"cf"
Zone  i = 4608 
6.7923020112e-01    -3.3969801920e-04   2.8612608867e-02    -7.6504018559e-02   2.9650654253e-03    
6.7424223304e-01    -1.0185384346e-03   2.8629200244e-02    7.1666991010e-02    2.9707247513e-03    
6.6916523746e-01    -1.7006973119e-03   2.8645968729e-02    1.1988187156e-01    2.9956789369e-03    
6.6394570564e-01    -2.3941592935e-03   2.8662864181e-02    1.2339770845e-01    3.0076526561e-03    
6.5853538426e-01    -3.1058266976e-03   2.8680260372e-02    1.1888436267e-01    3.0220442232e-03    
6.5289087343e-01    -3.8416752527e-03   2.8698227792e-02    1.1461228312e-01    3.0379815066e-03    
6.4697369413e-01    -4.6067556345e-03   2.8716780530e-02    1.1173296619e-01    3.0545106558e-03    
6.4074994965e-01    -5.4043698935e-03   2.8736266034e-02    1.0942430788e-01    3.0729988074e-03    
6.3418984101e-01    -6.2353694039e-03   2.8756360412e-02    1.0637134248e-01    3.0941692843e-03    
6.2726808251e-01    -7.0990804971e-03   2.8777345318e-02    1.0210714671e-01    3.1172220420e-03    
6.1996335102e-01    -7.9941463287e-03   2.8798942704e-02    9.6628196699e-02    3.1429905497e-03    
6.1225852935e-01    -8.9185596242e-03   2.8821257808e-02    9.0008909280e-02    3.1709607828e-03    
6.0414033524e-01    -9.8698061954e-03   2.8844156760e-02    8.2356308397e-02    3.2013279903e-03    
5.9559933016e-01    -1.0845180007e-02   2.8867549690e-02    7.3949267217e-02    3.2343377689e-03    
5.8662970325e-01    -1.1841968895e-02   2.8891409819e-02    6.5018769990e-02    3.2692596852e-03    
5.7722914573e-01    -1.2857641198e-02   2.8915626246e-02    5.5921889384e-02    3.3061637351e-03    
5.6739882087e-01    -1.3889971606e-02   2.8940186643e-02    4.6970220873e-02    3.3454304092e-03    
5.5714298592e-01    -1.4937006093e-02   2.8965107688e-02    3.8432869960e-02    3.3863413345e-03    
5.4646888145e-01    -1.5997155883e-02   2.8990114864e-02    3.0624382999e-02    3.4294458300e-03    
5.3538677572e-01    -1.7069094100e-02   2.9015309012e-02    2.3809238146e-02    3.4741464154e-03    
5.2390954531e-01    -1.8151420012e-02   2.9040694190e-02    1.8113254128e-02    3.5210358355e-03    
5.1205250471e-01    -1.9242315927e-02   2.9066158599e-02    1.3552530260e-02    3.5701233382e-03    
4.9983324139e-01    -2.0339297440e-02   2.9091623135e-02    1.0078894174e-02    3.6211395180e-03    
4.8727154833e-01    -2.1438909680e-02   2.9117026848e-02    7.5401460849e-03    3.6749232382e-03    
4.7438911424e-01    -2.2536334626e-02   2.9142321428e-02    5.6479183989e-03    3.7319020927e-03    
4.6120926178e-01    -2.3625225432e-02   2.9167185885e-02    4.0755785998e-03    3.7930079487e-03    
4.4775707534e-01    -2.4697670025e-02   2.9191554394e-02    2.4627072751e-03    3.8583357791e-03    
4.3405906913e-01    -2.5744189808e-02   2.9215188333e-02    4.0605982410e-04    3.9285051039e-03    
4.2014309117e-01    -2.6753986290e-02   2.9237797084e-02    -2.4622023586e-03   4.0034635180e-03    
4.0603827305e-01    -2.7715388414e-02   2.9259118363e-02    -6.4370150573e-03   4.0843301350e-03    
3.9177491280e-01    -2.8616291512e-02   2.9278932651e-02    -1.1781563770e-02   4.1712159774e-03    
3.7738431401e-01    -2.9444657814e-02   2.9296860024e-02    -1.8762957231e-02   4.2614959091e-03    
3.6289888737e-01    -3.0189324104e-02   2.9312739383e-02    -2.7370711149e-02   4.3412122731e-03    
3.4835177555e-01    -3.0840650822e-02   2.9326310823e-02    -3.7497894653e-02   4.4193580746e-03    
3.3377687181e-01    -3.1390801290e-02   2.9337444675e-02    -4.9020218208e-02   4.5010317488e-03    
3.1920858193e-01    -3.1834242816e-02   2.9346015186e-02    -6.1653565531e-02   4.5856495326e-03    
3.0468159669e-01    -3.2168089471e-02   2.9351965715e-02    -7.5040630390e-02   4.6731486710e-03    
2.9023074656e-01    -3.2391980674e-02   2.9355323078e-02    -8.8838371100e-02   4.7635625658e-03    
2.7589074667e-01    -3.2508017642e-02   2.9356187034e-02    -1.0262091011e-01   4.8580307481e-03    
2.6169592899e-01    -3.2520463117e-02   2.9354614017e-02    -1.1600845415e-01   4.9557002797e-03    
2.4768012432e-01    -3.2435208698e-02   2.9350828648e-02    -1.2865906034e-01   5.0576914065e-03    
2.3387636788e-01    -3.2259230629e-02   2.9344978655e-02    -1.4031932813e-01   5.1632642155e-03    
2.2031682285e-01    -3.2000037573e-02   2.9337245420e-02    -1.5082441309e-01   5.2712010532e-03    
2.0703259131e-01    -3.1665250393e-02   2.9327846671e-02    -1.6004408118e-01   5.3828748203e-03    
1.9405356318e-01    -3.1261995480e-02   2.9316954586e-02    -1.6803902263e-01   5.4978864244e-03    
1.8140827436e-01    -3.0796532819e-02   2.9304705140e-02    -1.7493766849e-01   5.6146536181e-03    
1.6912382955e-01    -3.0274204729e-02   2.9291265803e-02    -1.8091939956e-01   5.7333906998e-03    
1.5722572401e-01    -2.9699380805e-02   2.9276747766e-02    -1.8616378876e-01   5.8519363213e-03    
1.4573768881e-01    -2.9075419470e-02   2.9261173615e-02    -1.9096279332e-01   5.9709688794e-03    
1.3468166200e-01    -2.8404965718e-02   2.9244693492e-02    -1.9548744032e-01   6.0894249652e-03    
1.2407745271e-01    -2.7690441569e-02   2.9227295481e-02    -1.9971686601e-01   6.2053112369e-03    
1.1394277048e-01    -2.6934168660e-02   2.9209094764e-02    -2.0366222470e-01   6.3213158383e-03    
1.0429290530e-01    -2.6138849711e-02   2.9190123245e-02    -2.0694335273e-01   6.4327498874e-03    
9.5140607296e-02    -2.5308005458e-02   2.9170477555e-02    -2.0902715763e-01   6.5389651490e-03    
8.6495846290e-02    -2.4446106089e-02   2.9150241836e-02    -2.0916036232e-01   6.6424071390e-03    
7.8365659546e-02    -2.3558693994e-02   2.9129547655e-02    -2.0673136325e-01   6.7436532323e-03    
7.0753905615e-02    -2.2652621930e-02   2.9108549595e-02    -2.0081944934e-01   6.8501180326e-03    
6.3661094337e-02    -2.1735567698e-02   2.9087413965e-02    -1.9084135804e-01   6.9646759755e-03    
5.7084218674e-02    -2.0815902882e-02   2.9066317213e-02    -1.7396010210e-01   7.0871467704e-03    
5.1016370906e-02    -1.9903897415e-02   2.9045486622e-02    -1.3495979633e-01   7.2101797457e-03    
4.5449000499e-02    -1.8995378823e-02   2.9024814433e-02    -6.6207319121e-02   7.2893099568e-03    
4.0377434841e-02    -1.8045235669e-02   2.9003313072e-02    3.0503577169e-03    7.2709713177e-03    
3.5804438229e-02    -1.6976419917e-02   2.8979252176e-02    2.5030706014e-02    7.1530370236e-03    
3.1739052574e-02    -1.5721920682e-02   2.8951147390e-02    -2.4848015779e-02   6.9734148687e-03    
2.8191361960e-02    -1.4254824973e-02   2.8918425962e-02    -1.4295133036e-01   6.7437225848e-03    
2.5162811308e-02    -1.2593427877e-02   2.8881474175e-02    -3.0413440299e-01   6.4664803772e-03    
2.2638749953e-02    -1.0786370291e-02   2.8841363439e-02    -4.8102489382e-01   6.1281821092e-03    
2.0589182226e-02    -8.8887348063e-03   2.8799312315e-02    -6.4950977850e-01   5.6460732829e-03    
1.8979213939e-02    -6.9429516149e-03   2.8756240964e-02    -7.9942310273e-01   5.1590959053e-03    
1.7780308139e-02    -4.9728157226e-03   2.8712671468e-02    -9.1973879617e-01   4.6792980837e-03    
1.6974490199e-02    -2.9894183027e-03   2.8668837561e-02    -9.9862893907e-01   4.2698093700e-03    
1.6557481589e-02    -9.9773658165e-04   2.8624837303e-02    -1.0237297820e+00   4.0785218640e-03    
6.9534265412e-01    -3.3106207947e-04   8.5931733677e-02    -1.0294161762e-01   3.0568837302e-03    
6.9049111714e-01    -9.9263279176e-04   8.5981953818e-02    6.4356672837e-02    3.0623879880e-03    
6.8555289918e-01    -1.6574171594e-03   8.6032135652e-02    1.2124966863e-01    3.0855981104e-03    
6.8047616938e-01    -2.3331953968e-03   8.6083273258e-02    1.2792417801e-01    3.0972011479e-03    
6.7521386298e-01    -3.0266929815e-03   8.6135596968e-02    1.2492202525e-01    3.1113764755e-03    
6.6972383158e-01    -3.7437309471e-03   8.6189522867e-02    1.2187370396e-01    3.1267429222e-03    
6.6396878747e-01    -4.4892275616e-03   8.6245757068e-02    1.2032182225e-01    3.1437804547e-03    
6.5791552950e-01    -5.2663992973e-03   8.6304027963e-02    1.1948315771e-01    3.1615006805e-03    
6.5153531172e-01    -6.0760700189e-03   8.6364827284e-02    1.1794371241e-01    3.1817903235e-03    
6.4480332237e-01    -6.9175813772e-03   8.6427790679e-02    1.1521771860e-01    3.2054094358e-03    
6.3769892355e-01    -7.7896071540e-03   8.6493003717e-02    1.1125126742e-01    3.2311891947e-03    
6.3020534811e-01    -8.6901890734e-03   8.6560189304e-02    1.0610328785e-01    3.2599542639e-03    
6.2230967154e-01    -9.6168740721e-03   8.6629074884e-02    9.9869591668e-02    3.2910012984e-03    
6.1400275715e-01    -1.0567022030e-02   8.6699679739e-02    9.2815111343e-02    3.3249632940e-03    
6.0527883461e-01    -1.1537990069e-02   8.6771490714e-02    8.5180482291e-02    3.3608492587e-03    
5.9613575825e-01    -1.2527308669e-02   8.6844574133e-02    7.7328846093e-02    3.3990433510e-03    
5.8657454698e-01    -1.3532808655e-02   8.6918579647e-02    6.9592967203e-02    3.4400265585e-03    
5.7659931343e-01    -1.4552586015e-02   8.6993253151e-02    6.2257479678e-02    3.4820530316e-03    
5.6621728851e-01    -1.5585089233e-02   8.7068737904e-02    5.5657478056e-02    3.5259127002e-03    
5.5543838922e-01    -1.6629026165e-02   8.7144716892e-02    5.0087922616e-02    3.5719144633e-03    
5.4427515951e-01    -1.7683032010e-02   8.7221147415e-02    4.5696058166e-02    3.6201941111e-03    
5.3274249616e-01    -1.8745335665e-02   8.7297812966e-02    4.2505876451e-02    3.6710769979e-03    
5.2085756995e-01    -1.9813517397e-02   8.7374567607e-02    4.0469336950e-02    3.7241616250e-03    
5.0863960379e-01    -2.0884212045e-02   8.7451182381e-02    3.9430384543e-02    3.7811373299e-03    
4.9610956130e-01    -2.1952729556e-02   8.7527134514e-02    3.9083831979e-02    3.8416679096e-03    
4.8329021495e-01    -2.3012889482e-02   8.7602164927e-02    3.9063637095e-02    3.9055340968e-03    
4.7020577013e-01    -2.4056994167e-02   8.7675567463e-02    3.8956879878e-02    3.9740713602e-03    
4.5688187910e-01    -2.5075816965e-02   8.7746725905e-02    3.8302392788e-02    4.0478241540e-03    
4.4334543833e-01    -2.6058849955e-02   8.7814847315e-02    3.6668718723e-02    4.1271276989e-03    
4.2962459615e-01    -2.6994738670e-02   8.7879129050e-02    3.3702344692e-02    4.2128401704e-03    
4.1574855078e-01    -2.7871706337e-02   8.7938662609e-02    2.9062813652e-02    4.3046973558e-03    
4.0174759657e-01    -2.8678040412e-02   8.7992767224e-02    2.2417353665e-02    4.3998974752e-03    
3.8765292596e-01    -2.9402886714e-02   8.8040574555e-02    1.3721463561e-02    4.4848083325e-03    
3.7349661206e-01    -3.0036867731e-02   8.8081475690e-02    3.0522766280e-03    4.5682852303e-03    
3.5931142310e-01    -3.0572364951e-02   8.8114994732e-02    -9.4680356825e-03   4.6547362173e-03    
3.4513065514e-01    -3.1003999079e-02   8.8140805783e-02    -2.3547777604e-02   4.7445096335e-03    
3.3098795927e-01    -3.1328965369e-02   8.8158749495e-02    -3.8801576317e-02   4.8381451986e-03    
3.1691718638e-01    -3.1546918222e-02   8.8168876830e-02    -5.4842798080e-02   4.9359452610e-03    
3.0295208137e-01    -3.1659902582e-02   8.8171427907e-02    -7.1184512949e-02   5.0372888021e-03    
2.8912611646e-01    -3.1672069290e-02   8.8166745628e-02    -8.7383048447e-02   5.1416651590e-03    
2.7547228718e-01    -3.1589151275e-02   8.8155302745e-02    -1.0302617542e-01   5.2497507009e-03    
2.6202286871e-01    -3.1417933489e-02   8.8137668838e-02    -1.1781833919e-01   5.3626041287e-03    
2.4880930619e-01    -3.1165723674e-02   8.8114391011e-02    -1.3153125491e-01   5.4796297614e-03    
2.3586203113e-01    -3.0839933622e-02   8.8086082717e-02    -1.4399331925e-01   5.5994582076e-03    
2.2321026003e-01    -3.0447495992e-02   8.8053273837e-02    -1.5525215464e-01   5.7213011424e-03    
2.1088190899e-01    -2.9994500806e-02   8.8016408414e-02    -1.6545016054e-01   5.8453920317e-03    
1.9890348677e-01    -2.9486144026e-02   8.7975910756e-02    -1.7478469166e-01   5.9708865166e-03    
1.8729988970e-01    -2.8926674072e-02   8.7932113888e-02    -1.8348182242e-01   6.0986894683e-03    
1.7609434096e-01    -2.8319354864e-02   8.7885279685e-02    -1.9187306317e-01   6.2253653536e-03    
1.6530821676e-01    -2.7666758926e-02   8.7835577106e-02    -2.0018052162e-01   6.3498047726e-03    
1.5496092613e-01    -2.6971238737e-02   8.7783235733e-02    -2.0840162354e-01   6.4734511418e-03    
1.4506972664e-01    -2.6235051609e-02   8.7728381496e-02    -2.1654070896e-01   6.5920410103e-03    
1.3564961364e-01    -2.5460824385e-02   8.7671245824e-02    -2.2418035310e-01   6.7049131835e-03    
1.2671307730e-01    -2.4651981894e-02   8.7612050879e-02    -2.3069644932e-01   6.8127815934e-03    
1.1826996411e-01    -2.3812871177e-02   8.7551101127e-02    -2.3519976503e-01   6.9168853356e-03    
1.1032728895e-01    -2.2948885524e-02   8.7488786100e-02    -2.3690187720e-01   7.0199659079e-03    
1.0288897739e-01    -2.2066696452e-02   8.7425526234e-02    -2.3453077990e-01   7.1209532834e-03    
9.5955758600e-02    -2.1173777440e-02   8.7361866972e-02    -2.2705398496e-01   7.2271478763e-03    
8.9524918968e-02    -2.0278279679e-02   8.7298315499e-02    -2.1089182826e-01   7.3372413919e-03    
8.3590033459e-02    -1.9390203513e-02   8.7235586405e-02    -1.6974542720e-01   7.4430203616e-03    
7.8142666765e-02    -1.8505487856e-02   8.7173325301e-02    -9.6697511767e-02   7.5025319602e-03    
7.3177153773e-02    -1.7580199433e-02   8.7108540762e-02    -2.5142380624e-02   7.4671032178e-03    
6.8694233126e-02    -1.6539294769e-02   8.7036080630e-02    -6.9681883493e-03   7.3289692661e-03    
6.4700984807e-02    -1.5317494528e-02   8.6951444858e-02    -6.7276947189e-02   7.1280494288e-03    
6.1206537238e-02    -1.3888557378e-02   8.6852853344e-02    -2.0047298875e-01   6.8906867178e-03    
5.8212799779e-02    -1.2270266093e-02   8.6741567080e-02    -3.7853879671e-01   6.6062993881e-03    
5.5706733046e-02    -1.0509967749e-02   8.6620757009e-02    -5.7190984585e-01   6.2718891367e-03    
5.3660576646e-02    -8.6612944312e-03   8.6494111068e-02    -7.5556471682e-01   5.8706795082e-03    
5.2041434188e-02    -6.7655661269e-03   8.6364373523e-02    -9.1564603454e-01   5.3885626020e-03    
5.0822179499e-02    -4.8459572335e-03   8.6233167291e-02    -1.0405497511e+00   4.8327430229e-03    
4.9985578405e-02    -2.9132701925e-03   8.6101131885e-02    -1.1207472822e+00   4.3912747987e-03    
4.9527655293e-02    -9.7235247558e-04   8.5968610687e-02    -1.1445872194e+00   4.1931631467e-03    
7.1133290191e-01    -3.2249163382e-04   1.4281619108e-01    -1.0391608536e-01   3.1567023812e-03    
7.0661665384e-01    -9.6692370432e-04   1.4289942249e-01    6.3531102771e-02    3.1634475401e-03    
7.0181626559e-01    -1.6144651187e-03   1.4298313424e-01    1.2074187976e-01    3.1864018894e-03    
6.9688117029e-01    -2.2726940786e-03   1.4306796893e-01    1.2778479977e-01    3.1991248659e-03    
6.9176577167e-01    -2.9481596504e-03   1.4315498329e-01    1.2508700223e-01    3.2138746515e-03    
6.8642914278e-01    -3.6465292250e-03   1.4324487723e-01    1.2230332888e-01    3.2297376828e-03    
6.8083488982e-01    -4.3725912799e-03   1.4333813161e-01    1.2100205621e-01    3.2469241036e-03    
6.7495094111e-01    -5.1294746531e-03   1.4343522963e-01    1.2042364950e-01    3.2653963970e-03    
6.6874921368e-01    -5.9179788814e-03   1.4353631999e-01    1.1917476797e-01    3.2872008044e-03    
6.6220557210e-01    -6.7374586523e-03   1.4364106403e-01    1.1678248054e-01    3.3123716092e-03    
6.5529995442e-01    -7.5866191178e-03   1.4374944021e-01    1.1316711878e-01    3.3389314944e-03    
6.4801601427e-01    -8.4635503637e-03   1.4386108110e-01    1.0838823877e-01    3.3683996860e-03    
6.4034125315e-01    -9.3658596907e-03   1.4397576058e-01    1.0254233778e-01    3.4001730245e-03    
6.3226661718e-01    -1.0290974170e-02   1.4409307904e-01    9.5877090037e-02    3.4348013337e-03    
6.2378655328e-01    -1.1236316674e-02   1.4421260179e-01    8.8649220822e-02    3.4725402636e-03    
6.1489892389e-01    -1.2199482073e-02   1.4433400975e-01    8.1230810033e-02    3.5124731054e-03    
6.0560474093e-01    -1.3178355873e-02   1.4445702587e-01    7.3932521433e-02    3.5546552120e-03    
5.9590809897e-01    -1.4171081298e-02   1.4458141729e-01    6.7053780989e-02    3.5986799838e-03    
5.8581591390e-01    -1.5176148690e-02   1.4470683563e-01    6.0929776053e-02    3.6450279282e-03    
5.7533792410e-01    -1.6192297203e-02   1.4483319439e-01    5.5853116306e-02    3.6933073515e-03    
5.6448630316e-01    -1.7218197748e-02   1.4496028363e-01    5.1972342479e-02    3.7441900775e-03    
5.5327556774e-01    -1.8252125530e-02   1.4508776885e-01    4.9308677356e-02    3.7976172399e-03    
5.4172245099e-01    -1.9291724654e-02   1.4521543853e-01    4.7810516233e-02    3.8533513912e-03    
5.2984553035e-01    -2.0333721602e-02   1.4534275878e-01    4.7307446189e-02    3.9122386600e-03    
5.1766527585e-01    -2.1373549942e-02   1.4546918552e-01    4.7470515188e-02    3.9752286960e-03    
5.0520367199e-01    -2.2405198169e-02   1.4559389785e-01    4.7925118438e-02    4.0426467404e-03    
4.9248417822e-01    -2.3421177417e-02   1.4571596450e-01    4.8239178521e-02    4.1149688864e-03    
4.7953157112e-01    -2.4412514399e-02   1.4583431224e-01    4.7927964037e-02    4.1928129989e-03    
4.6637177877e-01    -2.5368988365e-02   1.4594755326e-01    4.6539002033e-02    4.2769829878e-03    
4.5303199778e-01    -2.6279556636e-02   1.4605444301e-01    4.3700826551e-02    4.3671181807e-03    
4.3954038576e-01    -2.7132769093e-02   1.4615354396e-01    3.9048349072e-02    4.4637840096e-03    
4.2592607773e-01    -2.7917239166e-02   1.4624343145e-01    3.2237224708e-02    4.5654832518e-03    
4.1221921627e-01    -2.8622414448e-02   1.4632293001e-01    2.3224668261e-02    4.6555604616e-03    
3.9845075013e-01    -2.9239181192e-02   1.4639099019e-01    1.2077086366e-02    4.7431450531e-03    
3.8465230097e-01    -2.9760136464e-02   1.4644673233e-01    -1.0757013822e-03   4.8349295588e-03    
3.7085609799e-01    -3.0180053306e-02   1.4648962177e-01    -1.5921634404e-02   4.9308232807e-03    
3.5709478413e-01    -3.0496206152e-02   1.4651946480e-01    -3.2051226559e-02   5.0299962088e-03    
3.4340120301e-01    -3.0708264836e-02   1.4653633764e-01    -4.9062932501e-02   5.1338702646e-03    
3.2980813674e-01    -3.0818221536e-02   1.4654054050e-01    -6.6446005343e-02   5.2415514360e-03    
3.1634822782e-01    -3.0830110482e-02   1.4653276800e-01    -8.3738032856e-02   5.3536384639e-03    
3.0305363241e-01    -3.0749510682e-02   1.4651373277e-01    -1.0049605257e-01   5.4696752998e-03    
2.8995588376e-01    -3.0583018546e-02   1.4648442332e-01    -1.1640512255e-01   5.5886673529e-03    
2.7708568055e-01    -3.0337738603e-02   1.4644571782e-01    -1.3123108093e-01   5.7116671047e-03    
2.6447280691e-01    -3.0020877534e-02   1.4639863634e-01    -1.4479240977e-01   5.8388568587e-03    
2.5214580931e-01    -2.9639175520e-02   1.4634407280e-01    -1.5712932589e-01   5.9697150229e-03    
2.4013198108e-01    -2.9198553821e-02   1.4628275822e-01    -1.6837309602e-01   6.1017231287e-03    
2.2845726313e-01    -2.8704061448e-02   1.4621544260e-01    -1.7871812131e-01   6.2345984471e-03    
2.1714594310e-01    -2.8159827462e-02   1.4614259511e-01    -1.8839547122e-01   6.3682732045e-03    
2.0622072667e-01    -2.7569025205e-02   1.4606468940e-01    -1.9773491095e-01   6.5013551302e-03    
1.9570248810e-01    -2.6934152248e-02   1.4598206031e-01    -2.0695022010e-01   6.6328310777e-03    
1.8561014930e-01    -2.6257491528e-02   1.4589500705e-01    -2.1602556417e-01   6.7591723294e-03    
1.7596058748e-01    -2.5541236579e-02   1.4580380148e-01    -2.2496279818e-01   6.8809190598e-03    
1.6676847264e-01    -2.4787941532e-02   1.4570877809e-01    -2.3331940957e-01   6.9964349207e-03    
