title="THE FLOW FIELD OF ONEFLOW"
variables=
"ETA"
"u/U"
"v/U * sqrt( 2 * Rex )"
zone  i = 169 
0.0000000000e+00    0.0000000000e+00    0.0000000000e+00    
1.7674082336e-01    4.7561503883e-01    7.9841241216e-03    
3.5349522555e-01    9.5123007766e-01    1.5968861656e-02    
5.3027066045e-01    9.6685285419e-01    1.6874769265e-02    
7.0706464489e-01    9.8247563072e-01    1.7780771885e-02    
8.8384784858e-01    9.8798950920e-01    1.7750141629e-02    
1.0606378695e+00    9.9350338767e-01    1.7719510183e-02    
1.2374197456e+00    9.9552636297e-01    1.7540566252e-02    
1.4142041639e+00    9.9754933826e-01    1.7361619745e-02    
1.5909840077e+00    9.9830691821e-01    1.7300616556e-02    
1.7677648123e+00    9.9906449817e-01    1.7239613035e-02    
1.9445433186e+00    9.9935214431e-01    1.7178881394e-02    
2.1213221931e+00    9.9963979046e-01    1.7118149626e-02    
2.2980999664e+00    9.9975010647e-01    1.7106283860e-02    
2.4748778818e+00    9.9986042249e-01    1.7094418085e-02    
2.6516552926e+00    9.9990305728e-01    1.7073413357e-02    
2.8284327593e+00    9.9994569208e-01    1.7052408622e-02    
3.0052099952e+00    9.9996227277e-01    1.7047699298e-02    
3.1819872533e+00    9.9997885347e-01    1.7042989974e-02    
3.3587644113e+00    9.9998533697e-01    1.7031678955e-02    
3.5355415787e+00    9.9999182046e-01    1.7020367937e-02    
3.7123187010e+00    9.9999436939e-01    1.7014720847e-02    
3.8890958275e+00    9.9999691832e-01    1.7009073758e-02    
4.0658729362e+00    9.9999792711e-01    1.7000003531e-02    
4.2426500471e+00    9.9999893589e-01    1.6990933304e-02    
4.4194271503e+00    9.9999933942e-01    1.6983691313e-02    
4.5962042549e+00    9.9999974294e-01    1.6976449322e-02    
4.7729813575e+00    9.9999990776e-01    1.6967521553e-02    
4.9497584614e+00    1.0000000726e+00    1.6958593784e-02    
5.1265355650e+00    1.0000001429e+00    1.6949986758e-02    
5.3033126696e+00    1.0000002133e+00    1.6941379733e-02    
5.4800897754e+00    1.0000002461e+00    1.6931845511e-02    
5.6568668822e+00    1.0000002789e+00    1.6922311290e-02    
5.8336439903e+00    1.0000002968e+00    1.6912476688e-02    
6.0104210996e+00    1.0000003146e+00    1.6902642087e-02    
6.1871982105e+00    1.0000003264e+00    1.6892160946e-02    
6.3639753226e+00    1.0000003382e+00    1.6881679805e-02    
6.5407524366e+00    1.0000003476e+00    1.6870637185e-02    
6.7175295516e+00    1.0000003569e+00    1.6859594565e-02    
6.8943066687e+00    1.0000003653e+00    1.6847970675e-02    
7.0710837870e+00    1.0000003736e+00    1.6836346785e-02    
7.2478609073e+00    1.0000003816e+00    1.6824052693e-02    
7.4246380289e+00    1.0000003895e+00    1.6811758600e-02    
7.6014151527e+00    1.0000003973e+00    1.6798864503e-02    
7.7781922778e+00    1.0000004051e+00    1.6785970405e-02    
7.9549694052e+00    1.0000004128e+00    1.6772355133e-02    
8.1317465339e+00    1.0000004205e+00    1.6758739860e-02    
8.3085236650e+00    1.0000004282e+00    1.6744482023e-02    
8.4853007974e+00    1.0000004359e+00    1.6730224186e-02    
8.6620779324e+00    1.0000004437e+00    1.6715218444e-02    
8.8388550688e+00    1.0000004515e+00    1.6700212702e-02    
9.0156322078e+00    1.0000004593e+00    1.6684518975e-02    
9.1924093482e+00    1.0000004671e+00    1.6668825248e-02    
9.3691864913e+00    1.0000004750e+00    1.6652369021e-02    
9.5459636360e+00    1.0000004830e+00    1.6635912794e-02    
9.7227407834e+00    1.0000004910e+00    1.6618732250e-02    
9.8995179324e+00    1.0000004990e+00    1.6601551706e-02    
1.0076295084e+01    1.0000005071e+00    1.6583600846e-02    
1.0253072238e+01    1.0000005153e+00    1.6565649985e-02    
1.0429849394e+01    1.0000005236e+00    1.6546952462e-02    
1.0606626552e+01    1.0000005319e+00    1.6528254939e-02    
1.0783403713e+01    1.0000005403e+00    1.6508787180e-02    
1.0960180876e+01    1.0000005487e+00    1.6489319421e-02    
1.1136958042e+01    1.0000005574e+00    1.6469098190e-02    
1.1313735210e+01    1.0000005660e+00    1.6448876959e-02    
1.1490512381e+01    1.0000005748e+00    1.6427894821e-02    
1.1667289554e+01    1.0000005836e+00    1.6406912683e-02    
1.1844066730e+01    1.0000005926e+00    1.6385187768e-02    
1.2020843908e+01    1.0000006016e+00    1.6363462852e-02    
1.2197621089e+01    1.0000006109e+00    1.6340996653e-02    
1.2374398272e+01    1.0000006201e+00    1.6318530454e-02    
1.2551175458e+01    1.0000006297e+00    1.6295351072e-02    
1.2727952647e+01    1.0000006392e+00    1.6272171690e-02    
1.2904729839e+01    1.0000006490e+00    1.6248281963e-02    
1.3081507033e+01    1.0000006589e+00    1.6224392235e-02    
1.3258284230e+01    1.0000006692e+00    1.6199843026e-02    
1.3435061429e+01    1.0000006795e+00    1.6175293816e-02    
1.3611838632e+01    1.0000006906e+00    1.6150084556e-02    
1.3788615837e+01    1.0000007018e+00    1.6124875295e-02    
1.3965393046e+01    1.0000007146e+00    1.6099140479e-02    
1.4142170256e+01    1.0000007274e+00    1.6073405661e-02    
1.4318947470e+01    1.0000007441e+00    1.6047045442e-02    
1.4495724687e+01    1.0000007607e+00    1.6020685223e-02    
1.4678321745e+01    1.0000007856e+00    1.5993651741e-02    
1.4860918805e+01    1.0000008105e+00    1.5966618258e-02    
1.5055347146e+01    1.0000008481e+00    1.5939028754e-02    
1.5249775489e+01    1.0000008858e+00    1.5911439250e-02    
1.5462436060e+01    1.0000009393e+00    1.5883253285e-02    
1.5675096634e+01    1.0000009929e+00    1.5855067320e-02    
1.5912990622e+01    1.0000010654e+00    1.5826362182e-02    
1.6150884613e+01    1.0000011379e+00    1.5797657042e-02    
1.6421843937e+01    1.0000012329e+00    1.5768478589e-02    
1.6692803264e+01    1.0000013278e+00    1.5739300135e-02    
1.7005748416e+01    1.0000014495e+00    1.5709772600e-02    
1.7318693573e+01    1.0000015712e+00    1.5680245065e-02    
1.7683927300e+01    1.0000017248e+00    1.5650548211e-02    
1.8049161033e+01    1.0000018784e+00    1.5620851357e-02    
1.8478707520e+01    1.0000020702e+00    1.5591283366e-02    
1.8908254014e+01    1.0000022621e+00    1.5561715373e-02    
1.9416254745e+01    1.0000025000e+00    1.5532744361e-02    
1.9924255485e+01    1.0000027379e+00    1.5503773347e-02    
2.0527434807e+01    1.0000030314e+00    1.5476116399e-02    
2.1130614139e+01    1.0000033248e+00    1.5448459450e-02    
2.1848829860e+01    1.0000036852e+00    1.5423216025e-02    
2.2567045592e+01    1.0000040456e+00    1.5397972599e-02    
2.3423942736e+01    1.0000044870e+00    1.5376788143e-02    
2.4280839894e+01    1.0000049283e+00    1.5355603685e-02    
2.5304629141e+01    1.0000054679e+00    1.5340967168e-02    
2.6328418406e+01    1.0000060075e+00    1.5326330651e-02    
2.7552804842e+01    1.0000066672e+00    1.5322010938e-02    
2.8777191301e+01    1.0000073269e+00    1.5317691225e-02    
3.0242484054e+01    1.0000081350e+00    1.5329535025e-02    
3.1707776835e+01    1.0000089431e+00    1.5341378824e-02    
3.3462216127e+01    1.0000099362e+00    1.5378594148e-02    
3.5216655452e+01    1.0000109294e+00    1.5415809471e-02    
3.7318000756e+01    1.0000121514e+00    1.5492948804e-02    
3.9419346101e+01    1.0000133734e+00    1.5570088139e-02    
4.1936777693e+01    1.0000148658e+00    1.5709362243e-02    
4.4454209336e+01    1.0000163583e+00    1.5848636350e-02    
4.7470605840e+01    1.0000181336e+00    1.6081153426e-02    
5.0487002404e+01    1.0000199089e+00    1.6313670507e-02    
5.4101669302e+01    1.0000219000e+00    1.6676326014e-02    
5.7716336268e+01    1.0000238911e+00    1.7038981528e-02    
6.2048275209e+01    1.0000258875e+00    1.7562659793e-02    
6.6380214222e+01    1.0000278838e+00    1.8086338066e-02    
7.1572040755e+01    1.0000294928e+00    1.8773412924e-02    
7.6763867350e+01    1.0000311017e+00    1.9460487790e-02    
8.2986506054e+01    1.0000317956e+00    2.0257947729e-02    
8.9209144783e+01    1.0000324895e+00    2.1055407672e-02    
9.6667456372e+01    1.0000317772e+00    2.1840823845e-02    
1.0412576790e+02    1.0000310650e+00    2.2626240010e-02    
1.1306529356e+02    1.0000287427e+00    2.3225799881e-02    
1.2200481899e+02    1.0000264205e+00    2.3825359736e-02    
1.3271986394e+02    1.0000227593e+00    2.4066408329e-02    
1.4343490838e+02    1.0000190982e+00    2.4307456910e-02    
1.5627823069e+02    1.0000148205e+00    2.4076865808e-02    
1.6912155197e+02    1.0000105429e+00    2.3846274724e-02    
1.8451597512e+02    1.0000065669e+00    2.3105074697e-02    
1.9991039631e+02    1.0000025909e+00    2.2363874764e-02    
2.1836272756e+02    9.9999968803e-01    2.1105136452e-02    
2.3681505498e+02    9.9999678511e-01    1.9846398401e-02    
2.5893276922e+02    9.9999533280e-01    1.8078958115e-02    
2.8105047620e+02    9.9999388049e-01    1.6311518410e-02    
3.0756171897e+02    9.9999378432e-01    1.4156026322e-02    
3.3407294960e+02    9.9999368814e-01    1.2000535221e-02    
3.6585051913e+02    9.9999446460e-01    9.7914106426e-03    
3.9762807207e+02    9.9999524106e-01    7.5822872170e-03    
4.3571816059e+02    9.9999625744e-01    5.7598231294e-03    
4.7380823137e+02    9.9999727382e-01    3.9373598904e-03    
5.1946486064e+02    9.9999805885e-01    2.7692045963e-03    
5.6512147545e+02    9.9999884389e-01    1.6010496721e-03    
6.1984776498e+02    9.9999925636e-01    1.0387737215e-03    
6.7457404580e+02    9.9999966883e-01    4.7649786043e-04    
7.4017169000e+02    9.9999981229e-01    2.8313160310e-04    
8.0576933050e+02    9.9999995575e-01    8.9765356661e-05    
8.8439791997e+02    9.9999998238e-01    4.7271695235e-05    
9.6302650847e+02    1.0000000090e+00    4.7780343340e-06    
1.0572746377e+03    1.0000000075e+00    1.1423503777e-06    
1.1515227668e+03    1.0000000060e+00    -2.4933335755e-06   
1.2644932594e+03    1.0000000037e+00    -1.5888703638e-06   
1.3774637519e+03    1.0000000013e+00    -6.8440715181e-07   
1.5128758097e+03    1.0000000007e+00    -3.6320636185e-07   
1.6482878674e+03    1.0000000001e+00    -4.2005571841e-08   
1.8105995120e+03    1.0000000000e+00    -1.5300102779e-08   
1.9729111565e+03    9.9999999999e-01    1.1405366283e-08    
2.1674659948e+03    9.9999999999e-01    6.8215384510e-09    
2.3620208330e+03    1.0000000000e+00    2.2377106187e-09    
2.5952239789e+03    1.0000000000e+00    1.1517348756e-09    
2.8284271247e+03    1.0000000000e+00    6.5759132452e-11    
zone  i = 169 
0.0000000000e+00    0.0000000000e+00    0.0000000000e+00    
1.2497463275e-01    4.7561502758e-01    1.1326393002e-02    
2.4995886732e-01    9.5123005516e-01    2.2653656212e-02    
3.7495797426e-01    9.6685283331e-01    2.3939743716e-02    
4.9997019777e-01    9.8247561146e-01    2.5225966104e-02    
6.2497479777e-01    9.8798948770e-01    2.5192564453e-02    
7.4998421820e-01    9.9350336393e-01    2.5159161502e-02    
8.7498787929e-01    9.9552633806e-01    2.4913252398e-02    
9.9999333797e-01    9.9754931219e-01    2.4667339756e-02    
1.1249955617e+00    9.9830689134e-01    2.4589503929e-02    
1.2499984647e+00    9.9906447048e-01    2.4511667679e-02    
1.3749997425e+00    9.9935211593e-01    2.4434232177e-02    
1.5000012805e+00    9.9963976139e-01    2.4356796514e-02    
1.6250020396e+00    9.9975007670e-01    2.4348996712e-02    
1.7500028990e+00    9.9986039201e-01    2.4341196903e-02    
1.8750034014e+00    9.9990302605e-01    2.4320893087e-02    
2.0000039431e+00    9.9994566008e-01    2.4300589264e-02    
2.1250043214e+00    9.9996223994e-01    2.4303835406e-02    
2.2500047152e+00    9.9997881980e-01    2.4307081548e-02    
2.3750050379e+00    9.9998530237e-01    2.4301527571e-02    
2.5000053670e+00    9.9999178494e-01    2.4295973593e-02    
2.6250056640e+00    9.9999433284e-01    2.4299007087e-02    
2.7500059636e+00    9.9999688075e-01    2.4302040582e-02    
2.8750062503e+00    9.9999788840e-01    2.4300852944e-02    
3.0000065383e+00    9.9999889606e-01    2.4299665307e-02    
3.1250068205e+00    9.9999929835e-01    2.4301722604e-02    
3.2500071034e+00    9.9999970063e-01    2.4303779902e-02    
3.3750073845e+00    9.9999986411e-01    2.4304154125e-02    
3.5000076661e+00    1.0000000276e+00    2.4304528348e-02    
3.6250079471e+00    1.0000000965e+00    2.4306096888e-02    
3.7500082285e+00    1.0000001653e+00    2.4307665429e-02    
3.8750085101e+00    1.0000001966e+00    2.4308703520e-02    
4.0000087922e+00    1.0000002278e+00    2.4309741610e-02    
4.1250090746e+00    1.0000002439e+00    2.4311174651e-02    
4.2500093574e+00    1.0000002600e+00    2.4312607691e-02    
4.3750096409e+00    1.0000002699e+00    2.4313984471e-02    
4.5000099247e+00    1.0000002798e+00    2.4315361251e-02    
4.6250102092e+00    1.0000002872e+00    2.4316839211e-02    
4.7500104941e+00    1.0000002945e+00    2.4318317171e-02    
4.8750107796e+00    1.0000003007e+00    2.4319904247e-02    
5.0000110656e+00    1.0000003069e+00    2.4321491322e-02    
5.1250113523e+00    1.0000003125e+00    2.4323096121e-02    
5.2500116394e+00    1.0000003181e+00    2.4324700920e-02    
5.3750119272e+00    1.0000003233e+00    2.4326455336e-02    
5.5000122155e+00    1.0000003286e+00    2.4328209752e-02    
5.6250125044e+00    1.0000003336e+00    2.4329973005e-02    
5.7500127939e+00    1.0000003386e+00    2.4331736257e-02    
5.8750130840e+00    1.0000003435e+00    2.4333647786e-02    
6.0000133746e+00    1.0000003483e+00    2.4335559316e-02    
6.1250136659e+00    1.0000003530e+00    2.4337495816e-02    
6.2500139578e+00    1.0000003577e+00    2.4339432315e-02    
6.3750142503e+00    1.0000003622e+00    2.4341501297e-02    
6.5000145433e+00    1.0000003668e+00    2.4343570278e-02    
6.6250148371e+00    1.0000003712e+00    2.4345685934e-02    
6.7500151314e+00    1.0000003756e+00    2.4347801589e-02    
6.8750154264e+00    1.0000003799e+00    2.4350033981e-02    
7.0000157219e+00    1.0000003842e+00    2.4352266373e-02    
7.1250160182e+00    1.0000003883e+00    2.4354562704e-02    
7.2500163150e+00    1.0000003925e+00    2.4356859035e-02    
7.3750166125e+00    1.0000003966e+00    2.4359260894e-02    
7.5000169106e+00    1.0000004007e+00    2.4361662753e-02    
7.6250172095e+00    1.0000004046e+00    2.4364140528e-02    
7.7500175089e+00    1.0000004086e+00    2.4366618303e-02    
7.8750178090e+00    1.0000004125e+00    2.4369194711e-02    
8.0000181097e+00    1.0000004164e+00    2.4371771119e-02    
8.1250184112e+00    1.0000004202e+00    2.4374429725e-02    
8.2500187133e+00    1.0000004240e+00    2.4377088331e-02    
8.3750190161e+00    1.0000004277e+00    2.4379843456e-02    
8.5000193195e+00    1.0000004315e+00    2.4382598581e-02    
8.6250196237e+00    1.0000004351e+00    2.4385435984e-02    
8.7500199285e+00    1.0000004388e+00    2.4388273387e-02    
8.8750202341e+00    1.0000004424e+00    2.4391209488e-02    
9.0000205402e+00    1.0000004460e+00    2.4394145589e-02    
9.1250208472e+00    1.0000004496e+00    2.4397157905e-02    
9.2500211547e+00    1.0000004531e+00    2.4400170222e-02    
9.3750214631e+00    1.0000004567e+00    2.4403289323e-02    
9.5000217721e+00    1.0000004602e+00    2.4406408425e-02    
9.6250220819e+00    1.0000004639e+00    2.4409593216e-02    
9.7500223923e+00    1.0000004676e+00    2.4412778006e-02    
9.8750227034e+00    1.0000004716e+00    2.4416098035e-02    
1.0000023015e+01    1.0000004757e+00    2.4419418064e-02    
1.0125023328e+01    1.0000004808e+00    2.4422824346e-02    
1.0250023641e+01    1.0000004860e+00    2.4426230628e-02    
1.0379139201e+01    1.0000004948e+00    2.4429647435e-02    
1.0508254763e+01    1.0000005036e+00    2.4433064243e-02    
1.0645736299e+01    1.0000005190e+00    2.4436558202e-02    
1.0783217836e+01    1.0000005343e+00    2.4440052162e-02    
1.0933591501e+01    1.0000005576e+00    2.4443597049e-02    
1.1083965167e+01    1.0000005810e+00    2.4447141937e-02    
1.1252181545e+01    1.0000006134e+00    2.4450766060e-02    
1.1420397924e+01    1.0000006459e+00    2.4454390183e-02    
1.1611995018e+01    1.0000006885e+00    2.4458085085e-02    
1.1803592112e+01    1.0000007311e+00    2.4461779986e-02    
1.2024877660e+01    1.0000007850e+00    2.4465560898e-02    
1.2246163208e+01    1.0000008389e+00    2.4469341811e-02    
1.2504422349e+01    1.0000009055e+00    2.4473214417e-02    
1.2762681491e+01    1.0000009721e+00    2.4477087024e-02    
1.3066416604e+01    1.0000010528e+00    2.4481064574e-02    
1.3370151720e+01    1.0000011336e+00    2.4485042125e-02    
1.3729362342e+01    1.0000012301e+00    2.4489147391e-02    
1.4088572967e+01    1.0000013266e+00    2.4493252657e-02    
1.4515084992e+01    1.0000014406e+00    2.4497511715e-02    
1.4941597021e+01    1.0000015547e+00    2.4501770773e-02    
1.5449452034e+01    1.0000016880e+00    2.4506238130e-02    
1.5957307051e+01    1.0000018214e+00    2.4510705487e-02    
1.6563224603e+01    1.0000019758e+00    2.4515451345e-02    
1.7169142159e+01    1.0000021303e+00    2.4520197203e-02    
1.7893070204e+01    1.0000023076e+00    2.4525353053e-02    
1.8616998255e+01    1.0000024850e+00    2.4530508903e-02    
1.9482769880e+01    1.0000026869e+00    2.4536269581e-02    
2.0348541511e+01    1.0000028889e+00    2.4542030260e-02    
2.1384659561e+01    1.0000031170e+00    2.4548733826e-02    
2.2420777619e+01    1.0000033452e+00    2.4555437392e-02    
2.3661353068e+01    1.0000036011e+00    2.4563624677e-02    
2.4901928529e+01    1.0000038570e+00    2.4571811963e-02    
2.6387803479e+01    1.0000041423e+00    2.4582391045e-02    
2.7873678445e+01    1.0000044277e+00    2.4592970128e-02    
2.9653770724e+01    1.0000047444e+00    2.4607426545e-02    
3.1433863024e+01    1.0000050611e+00    2.4621882962e-02    
3.3566776656e+01    1.0000054113e+00    2.4642646103e-02    
3.5699690316e+01    1.0000057616e+00    2.4663409245e-02    
3.8255644877e+01    1.0000061476e+00    2.4694348189e-02    
4.0811599474e+01    1.0000065336e+00    2.4725287134e-02    
4.3874741854e+01    1.0000069562e+00    2.4772334341e-02    
4.6937884282e+01    1.0000073787e+00    2.4819381548e-02    
5.0609058959e+01    1.0000078336e+00    2.4891021927e-02    
5.4280233698e+01    1.0000082886e+00    2.4962662307e-02    
5.8680302728e+01    1.0000087596e+00    2.5069604757e-02    
6.3080371838e+01    1.0000092306e+00    2.5176547208e-02    
6.8354193850e+01    1.0000096778e+00    2.5328953725e-02    
7.3628015962e+01    1.0000101250e+00    2.5481360246e-02    
7.9949215145e+01    1.0000104730e+00    2.5680827593e-02    
8.6270414441e+01    1.0000108211e+00    2.5880294944e-02    
9.3847096474e+01    1.0000109580e+00    2.6103361571e-02    
1.0142377860e+02    1.0000110950e+00    2.6326428199e-02    
1.1050538159e+02    1.0000109003e+00    2.6497176263e-02    
1.1958698456e+02    1.0000107056e+00    2.6667924326e-02    
1.3047249025e+02    1.0000101107e+00    2.6620799306e-02    
1.4135799551e+02    1.0000095158e+00    2.6573674287e-02    
1.5440577087e+02    1.0000085667e+00    2.6031546934e-02    
1.6745354469e+02    1.0000076176e+00    2.5489419644e-02    
1.8309313875e+02    1.0000064841e+00    2.4138123148e-02    
1.9873272888e+02    1.0000053505e+00    2.2786826992e-02    
2.1747901626e+02    1.0000042660e+00    2.0513967450e-02    
2.3622529590e+02    1.0000031815e+00    1.8241108846e-02    
2.5869543479e+02    1.0000023475e+00    1.5386705264e-02    
2.8116556186e+02    1.0000015134e+00    1.2532303183e-02    
3.0809931955e+02    1.0000010162e+00    9.8092993340e-03    
3.3503306339e+02    1.0000005190e+00    7.0862968864e-03    
3.6731716852e+02    1.0000003079e+00    5.1210113977e-03    
3.9960126135e+02    1.0000000968e+00    3.1557266580e-03    
4.3829858412e+02    1.0000000456e+00    2.1001901182e-03    
4.7699589880e+02    9.9999999443e-01    1.0446537992e-03    
5.2338043282e+02    9.9999999482e-01    6.3736553601e-04    
5.6976496306e+02    9.9999999522e-01    2.3007730615e-04    
6.2536376982e+02    9.9999999899e-01    1.2609604594e-04    
6.8096257545e+02    1.0000000028e+00    2.2114787880e-05    
